Wavelength (Âµm)    Reflectance, P-Pol. (%) Reflectance, S-Pol. (%) Reflectance, Unpol. (%)
0.300   29.64358    52.99432    41.31895
0.310   31.84036    55.12472    43.48254
0.320   32.71884    56.14231    44.43058
0.330   33.05813    56.2909 44.67451
0.340   32.87174    55.91771    44.39472
0.350   32.59517    55.4412 44.01818
0.360   32.99212    55.52037    44.25625
0.370   33.6641 55.76801    44.71605
0.380   33.93622    55.57078    44.7535
0.390   33.91466    54.96402    44.43934
0.400   33.5786 54.03192    43.80526
0.410   33.07911    52.9278 43.00346
0.420   32.47943    51.69581    42.08762
0.430   31.8585 50.41085    41.13467
0.440   31.18582    49.11232    40.14907
0.450   30.55335    47.83034    39.19185
0.460   30.12058    46.84394    38.48226
0.470   30.10998    46.44351    38.27674
0.480   31.18375    47.27741    39.23058
0.490   34.72061    50.4838 42.6022
0.500   41.92531    56.60601    49.26566
0.510   51.21078    63.70471    57.45775
0.520   59.64102    69.69372    64.66737
0.530   66.40904    74.29166    70.35035
0.540   71.68772    77.78718    74.73745
0.550   75.79099    80.48053    78.13576
0.560   79.09367    82.6548 80.87423
0.570   81.72023    84.38754    83.05388
0.580   83.83992    85.80129    84.82061
0.590   85.62645    87.04047    86.33346
0.600   87.13534    88.10815    87.62174
0.610   88.38109    89.04296    88.71203
0.620   89.47894    89.91029    89.69461
0.630   90.43995    90.70122    90.57058
0.640   91.29788    91.42407    91.36097
0.650   92.04438    92.10676    92.07557
0.660   92.71077    92.78342    92.7471
0.670   93.29365    93.33977    93.31671
0.680   93.72677    93.81923    93.773
0.690   94.09648    94.21867    94.15757
0.700   94.34876    94.53601    94.44238
0.710   94.55819    94.7478 94.65299
0.720   94.68382    94.98762    94.83572
0.730   94.83653    95.18281    95.00967
0.740   94.95505    95.34831    95.15168
0.750   95.07124    95.49114    95.28119
0.760   95.15171    95.70349    95.4276
0.770   95.30422    95.8883 95.59626
0.780   95.39736    96.03039    95.71388
0.790   95.46503    96.19828    95.83166
0.800   95.5432 96.33926    95.94123
0.810   95.6237 96.4857 96.0547
0.820   95.73479    96.68008    96.20743
0.830   95.786  96.7634 96.2747
0.840   95.86704    96.91357    96.3903
0.850   95.91042    97.03632    96.47337
0.860   95.9628 97.14502    96.55391
0.870   96.00262    97.24038    96.6215
0.880   96.08322    97.34247    96.71285
0.890   97.0316 97.0949 97.06325
0.900   96.96683    97.26704    97.11694
0.910   96.8538 97.28402    97.06891
0.920   96.80781    97.31857    97.06319
0.930   96.78169    97.35139    97.06654
0.940   96.54659    97.389  96.96779
0.950   96.45516    97.41518    96.93517
0.960   96.33861    97.3756 96.85711
0.970   96.22841    97.33678    96.7826
0.980   96.12752    96.90261    96.51507
0.990   96.00598    96.84234    96.42416
1.000   95.69738    96.58357    96.14047
1.010   95.77063    96.64835    96.20949
1.020   95.84245    96.71184    96.27715
1.030   95.91284    96.77408    96.34346
1.040   95.98182    96.83506    96.40844
1.050   96.04942    96.89481    96.47212
1.060   96.11565    96.95335    96.5345
1.070   96.18052    97.01068    96.5956
1.080   96.24405    97.06683    96.65544
1.090   96.30626    97.12181    96.71403
1.100   96.36716    97.17564    96.7714
1.110   96.42677    97.22833    96.82755
1.120   96.4851 97.2799 96.8825
1.130   96.54218    97.33036    96.93627
1.140   96.59802    97.37972    96.98887
1.150   96.65262    97.42801    97.04032
1.160   96.70602    97.47524    97.09063
1.170   96.75822    97.52141    97.13981
1.180   96.80923    97.56655    97.18789
1.190   96.85909    97.61067    97.23488
1.200   96.90779    97.65379    97.28079
1.210   96.95535    97.69591    97.32563
1.220   97.00179    97.73706    97.36942
1.230   97.04712    97.77724    97.41218
1.240   97.09136    97.81647    97.45392
1.250   97.13453    97.85476    97.49464
1.260   97.17662    97.89213    97.53438
1.270   97.21767    97.92859    97.57313
1.280   97.25768    97.96415    97.61092
1.290   97.29667    97.99883    97.64775
1.300   97.33465    98.03264    97.68364
1.310   97.37163    98.06559    97.71861
1.320   97.40763    98.09769    97.75266
1.330   97.44267    98.12896    97.78581
1.340   97.47674    98.15941    97.81808
1.350   97.50988    98.18905    97.84946
1.360   97.54209    98.21789    97.87999
1.370   97.57338    98.24595    97.90967
1.380   97.60376    98.27324    97.9385
1.390   97.63326    98.29977    97.96652
1.400   97.66188    98.32555    97.99371
1.410   97.68963    98.3506 98.02011
1.420   97.71653    98.37491    98.04572
1.430   97.74258    98.39852    98.07055
1.440   97.76781    98.42142    98.09462
1.450   97.79222    98.44363    98.11793
1.460   97.81583    98.46516    98.14049
1.470   97.83864    98.48603    98.16233
1.480   97.86067    98.50623    98.18345
1.490   97.88192    98.52579    98.20386
1.500   97.90242    98.54471    98.22357
1.510   97.92218    98.563  98.24259
1.520   97.94119    98.58068    98.26093
1.530   97.95948    98.59775    98.27862
1.540   97.97706    98.61423    98.29564
1.550   97.99393    98.63012    98.31202
1.560   98.01011    98.64544    98.32777
1.570   98.02561    98.66019    98.3429
1.580   98.04043    98.67439    98.35741
1.590   98.0546 98.68804    98.37132
1.600   98.06811    98.70115    98.38463
1.610   98.08099    98.71374    98.39737
1.620   98.09323    98.72581    98.40952
1.630   98.10486    98.73738    98.42112
1.640   98.11588    98.74845    98.43216
1.650   98.12629    98.75902    98.44266
1.660   98.13612    98.76912    98.45262
1.670   98.14536    98.77874    98.46205
1.680   98.15404    98.78791    98.47097
1.690   98.16215    98.79662    98.47938
1.700   98.16971    98.80488    98.4873
1.710   98.17673    98.81271    98.49472
1.720   98.18322    98.82011    98.50166
1.730   98.18918    98.82709    98.50813
1.740   98.19462    98.83366    98.51414
1.750   98.19957    98.83982    98.51969
1.760   98.20401    98.84559    98.5248
1.770   98.20796    98.85097    98.52947
1.780   98.21144    98.85598    98.53371
1.790   98.21444    98.86061    98.53752
1.800   98.21698    98.86488    98.54093
1.810   98.21907    98.86879    98.54393
1.820   98.22071    98.87235    98.54653
1.830   98.22191    98.87557    98.54874
1.840   98.22268    98.87846    98.55057
1.850   98.22303    98.88103    98.55203
1.860   98.22297    98.88327    98.55312
1.870   98.2225 98.8852 98.55385
1.880   98.22163    98.88683    98.55423
1.890   98.22037    98.88815    98.55426
1.900   98.21873    98.88919    98.55396
1.910   98.21672    98.88994    98.55333
1.920   98.21434    98.89042    98.55238
1.930   98.21159    98.89062    98.55111
1.940   98.2085 98.89056    98.54953
1.950   98.20506    98.89024    98.54765
1.960   98.20128    98.88967    98.54547
1.970   98.19716    98.88885    98.54301
1.980   98.19273    98.88779    98.54026
1.990   98.18797    98.8865 98.53724
2.000   98.18291    98.88499    98.53395
2.010   98.17754    98.88325    98.53039
2.020   98.17187    98.8813 98.52658
2.030   98.16591    98.87913    98.52252
2.040   98.15967    98.87677    98.51822
2.050   98.15315    98.8742 98.51367
2.060   98.14635    98.87145    98.5089
2.070   98.13929    98.8685 98.5039
2.080   98.13198    98.86538    98.49868
2.090   98.12441    98.86208    98.49324
2.100   98.11659    98.85861    98.4876
2.110   98.10853    98.85497    98.48175
2.120   98.10023    98.85117    98.4757
2.130   98.09171    98.84722    98.46947
2.140   98.08296    98.84312    98.46304
2.150   98.074  98.83887    98.45643
2.160   98.06482    98.83448    98.44965
2.170   98.05544    98.82996    98.4427
2.180   98.04585    98.8253 98.43558
2.190   98.03607    98.82052    98.4283
2.200   98.0261 98.81562    98.42086
2.210   98.01594    98.8106 98.41327
2.220   98.0056 98.80547    98.40554
2.230   97.99509    98.80023    98.39766
2.240   97.98441    98.79489    98.38965
2.250   97.97356    98.78944    98.3815
2.260   97.96255    98.7839 98.37323
2.270   97.95139    98.77827    98.36483
2.280   97.94008    98.77256    98.35632
2.290   97.92862    98.76676    98.34769
2.300   97.91702    98.76088    98.33895
2.310   97.90528    98.75493    98.3301
2.320   97.89342    98.7489 98.32116
2.330   97.88142    98.74281    98.31211
2.340   97.8693 98.73665    98.30298
2.350   97.85707    98.73044    98.29375
2.360   97.84472    98.72416    98.28444
2.370   97.83226    98.71784    98.27505
2.380   97.81969    98.71146    98.26558
2.390   97.80703    98.70504    98.25603
2.400   97.79426    98.69857    98.24642
2.410   97.7814 98.69207    98.23674
2.420   97.76846    98.68553    98.22699
2.430   97.75542    98.67895    98.21719
2.440   97.74231    98.67235    98.20733
2.450   97.72911    98.66572    98.19742
2.460   97.71584    98.65907    98.18746
2.470   97.70251    98.65239    98.17745
2.480   97.6891 98.6457 98.1674
2.490   97.67563    98.63899    98.15731
2.500   97.6621 98.63227    98.14719
2.510   97.64852    98.62554    98.13703
2.520   97.63488    98.6188 98.12684
2.530   97.62119    98.61206    98.11662
2.540   97.60745    98.60532    98.10639
2.550   97.59367    98.59858    98.09613
2.560   97.57985    98.59184    98.08585
2.570   97.566  98.58511    98.07555
2.580   97.55211    98.57838    98.06525
2.590   97.53819    98.57167    98.05493
2.600   97.52424    98.56497    98.0446
2.610   97.51055    98.55843    98.03449
2.620   97.49664    98.5518 98.02422
2.630   97.48272    98.5452 98.01396
2.640   97.46879    98.53862    98.0037
2.650   97.45485    98.53206    97.99346
2.660   97.44051    98.52536    97.98293
2.670   97.42656    98.51886    97.97271
2.680   97.41261    98.5124 97.96251
2.690   97.39828    98.50579    97.95204
2.700   97.38434    98.4994 97.94187
2.710   97.3704 98.49305    97.93172
2.720   97.35609    98.48656    97.92132
2.730   97.34218    98.48028    97.91123
2.739   97.32828    98.47405    97.90116
2.750   97.31401    98.46769    97.89085
2.760   97.30015    98.46155    97.88085
2.770   97.28592    98.45528    97.8706
2.780   97.27211    98.44924    97.86067
2.790   97.25793    98.44308    97.8505
2.800   97.24416    98.43713    97.84065
2.810   97.23005    98.43108    97.83056
2.820   97.21634    98.42524    97.82079
2.830   97.20229    98.4193 97.81079
2.839   97.18865    98.41357    97.80111
2.850   97.17467    98.40775    97.79121
2.859   97.16111    98.40214    97.78163
2.870   97.14722    98.39644    97.77183
2.880   97.13336    98.3908 97.76208
2.889   97.11993    98.38537    97.75265
2.900   97.10616    98.37986    97.74301
2.910   97.09245    98.37442    97.73343
2.919   97.07916    98.36918    97.72417
2.929   97.06554    98.36387    97.71471
2.940   97.05198    98.35863    97.70531
2.949   97.03884    98.3536 97.69622
2.959   97.02539    98.34849    97.68694
2.969   97.012  98.34346    97.67773
2.980   96.99866    98.3385 97.66858
2.990   96.98539    98.33361    97.6595
3.000   96.97218    98.3288 97.65049
3.009   96.95938    98.32418    97.64178
3.019   96.94629    98.31952    97.6329
3.029   96.93327    98.31492    97.62409
3.039   96.92031    98.31041    97.61536
3.049   96.90742    98.30596    97.60669
3.059   96.89459    98.3016 97.5981
3.069   96.88184    98.29731    97.58957
3.079   96.86916    98.2931 97.58113
3.089   96.85654    98.28896    97.57275
3.099   96.844  98.28491    97.56445
3.109   96.83153    98.28093    97.55623
3.119   96.81914    98.27703    97.54808
3.129   96.80682    98.2732 97.54001
3.139   96.79457    98.26946    97.53201
3.149   96.7824 98.26579    97.5241
3.159   96.77031    98.26221    97.51626
3.169   96.75796    98.25861    97.50829
3.179   96.74603    98.25518    97.5006
3.189   96.73417    98.25184    97.493
3.199   96.72239    98.24857    97.48548
3.209   96.71069    98.24538    97.47803
3.219   96.69876    98.24219    97.47047
3.229   96.68722    98.23916    97.46319
3.239   96.67576    98.23621    97.45599
3.249   96.66408    98.23326    97.44867
3.259   96.65279    98.23047    97.44163
3.269   96.64158    98.22776    97.43467
3.279   96.63015    98.22506    97.42761
3.289   96.61911    98.22251    97.42081
3.299   96.60786    98.21997    97.41391
3.309   96.59699    98.21757    97.40728
3.319   96.5862 98.21526    97.40073
3.329   96.57521    98.21296    97.39408
3.339   96.56459    98.2108 97.38769
3.349   96.55377    98.20866    97.38122
3.359   96.54304    98.2066 97.37482
3.369   96.53268    98.20468    97.36868
3.379   96.52213    98.20278    97.36245
3.389   96.51194    98.201  97.35647
3.399   96.50157    98.19926    97.35041
3.409   96.49128    98.19759    97.34444
3.419   96.48136    98.19605    97.3387
3.429   96.47125    98.19454    97.33289
3.439   96.46123    98.1931 97.32717
3.449   96.4513 98.19174    97.32152
3.459   96.44172    98.1905 97.31611
3.469   96.43197    98.18929    97.31063
3.479   96.42231    98.18816    97.30523
3.489   96.41274    98.1871 97.29992
3.499   96.40325    98.18611    97.29468
3.509   96.39386    98.1852 97.28953
3.519   96.3848 98.18438    97.28459
3.529   96.37558    98.18361    97.2796
3.539   96.36645    98.18292    97.27468
3.549   96.35741    98.18229    97.26985
3.559   96.34846    98.18173    97.26509
3.569   96.33959    98.18125    97.26042
3.579   96.33081    98.18083    97.25582
3.589   96.3219 98.18047    97.25118
3.599   96.31329    98.18019    97.24674
3.609   96.30478    98.17997    97.24238
3.619   96.29635    98.17983    97.23809
3.629   96.28801    98.17974    97.23388
3.639   96.27976    98.17972    97.22974
3.649   96.27137    98.17977    97.22557
3.659   96.26329    98.17988    97.22158
3.669   96.25529    98.18005    97.21767
3.679   96.24738    98.18028    97.21383
3.689   96.23935    98.18058    97.20996
3.699   96.2316 98.18093    97.20627
3.709   96.22394    98.18134    97.20264
3.719   96.21616    98.18183    97.199
3.729   96.20867    98.18236    97.19551
3.739   96.20106    98.18296    97.19201
3.749   96.19374    98.1836 97.18867
3.759   96.1863 98.18431    97.18531
3.769   96.17913    98.18507    97.1821
3.779   96.17186    98.18589    97.17888
3.789   96.16486    98.18675    97.1758
3.799   96.15775    98.18768    97.17272
3.809   96.15072    98.18867    97.1697
3.819   96.14396    98.18968    97.16682
3.829   96.13709    98.19077    97.16393
3.839   96.13031    98.19191    97.16111
3.849   96.1236 98.1931 97.15835
3.859   96.11715    98.1943 97.15572
3.869   96.1106 98.19558    97.15309
3.879   96.10413    98.19691    97.15052
3.889   96.09774    98.19829    97.14801
3.899   96.09142    98.19971    97.14556
3.909   96.08518    98.20117    97.14317
3.919   96.07902    98.20267    97.14085
3.929   96.07308    98.20418    97.13863
3.939   96.06707    98.20577    97.13642
3.949   96.06097    98.20744    97.1342
3.959   96.0551 98.2091 97.1321
3.969   96.0493 98.21081    97.13006
3.979   96.04358    98.21255    97.12806
3.989   96.03793    98.21432    97.12612
3.999   96.03234    98.21613    97.12424
4.009   96.02683    98.21798    97.1224
4.019   96.02124    98.21991    97.12057
4.029   96.01587    98.22182    97.11884
4.039   96.01056    98.22376    97.11716
4.049   96.00532    98.22573    97.11552
4.059   96.00001    98.22779    97.1139
4.069   95.9949 98.22982    97.11236
4.079   95.98973    98.23193    97.11083
4.089   95.98475    98.23401    97.10938
4.099   95.97983    98.23612    97.10798
4.109   95.97486    98.23831    97.10658
4.119   95.97006    98.24047    97.10527
4.129   95.96522    98.24271    97.10396
4.139   95.96043    98.24497    97.1027
4.149   95.95582    98.2472 97.10151
4.159   95.95116    98.2495 97.10033
4.169   95.94656    98.25182    97.09919
4.179   95.94213    98.2541 97.09812
4.189   95.93765    98.25646    97.09705
4.199   95.93322    98.25884    97.09603
4.209   95.92885    98.26123    97.09504
4.219   95.92454    98.26364    97.09409
4.229   95.9204 98.266  97.0932
4.239   95.9162 98.26843    97.09232
4.249   95.91206    98.27088    97.09147
4.259   95.90797    98.27333    97.09065
4.269   95.90393    98.2758 97.08987
4.279   95.89995    98.27828    97.08911
4.289   95.89602    98.28076    97.08839
4.299   95.89204    98.28332    97.08768
4.309   95.88822    98.28582    97.08702
4.319   95.88444    98.28832    97.08638
4.329   95.88071    98.29083    97.08577
4.339   95.87703    98.29335    97.08519
4.349   95.87331    98.29593    97.08462
4.359   95.86973    98.29845    97.08409
4.369   95.86619    98.30097    97.08358
4.379   95.86261    98.30355    97.08308
4.389   95.85916    98.30608    97.08262
4.399   95.85568    98.30866    97.08217
4.409   95.85232    98.31118    97.08175
4.419   95.84892    98.31376    97.08134
4.429   95.84565    98.31627    97.08096
4.439   95.84234    98.31884    97.08059
4.449   95.83915    98.32134    97.08025
4.459   95.83592    98.3239 97.07991
4.469   95.83274    98.32645    97.0796
4.479   95.82959    98.329  97.07929
4.489   95.82656    98.33147    97.07902
4.499   95.82349    98.334  97.07875
4.509   95.82046    98.33651    97.07849
4.519   95.81747    98.33902    97.07825
4.529   95.81452    98.34151    97.07802
4.539   95.8116 98.34399    97.0778
4.549   95.80872    98.34646    97.07759
4.559   95.80587    98.34891    97.07739
4.569   95.80306    98.35135    97.0772
4.579   95.80028    98.35378    97.07703
4.588   95.79753    98.35618    97.07686
4.599   95.79475    98.35863    97.07669
4.609   95.79207    98.361  97.07654
4.619   95.78942    98.36336    97.07639
4.628   95.7868 98.36569    97.07625
4.639   95.78414    98.36807    97.0761
4.648   95.78158    98.37036    97.07597
4.659   95.77899    98.37269    97.07584
4.668   95.77649    98.37494    97.07572
4.679   95.77395    98.37723    97.07559
4.688   95.7715 98.37943    97.07547
4.699   95.76902    98.38167    97.07535
4.709   95.76657    98.38388    97.07523
4.718   95.7642 98.38602    97.07511
4.729   95.7618 98.38818    97.07499
4.739   95.75943    98.39031    97.07487
4.749   95.75707    98.39242    97.07475
4.758   95.7548 98.39445    97.07463
4.768   95.7525 98.3965 97.0745
4.778   95.75022    98.39852    97.07437
4.788   95.74796    98.40052    97.07424
4.798   95.74572    98.40248    97.0741
4.808   95.74351    98.40441    97.07396
4.818   95.74132    98.40632    97.07382
4.829   95.73909    98.40823    97.07366
4.838   95.73694    98.41007    97.0735
4.848   95.73481    98.41187    97.07334
4.858   95.73269    98.41365    97.07317
4.868   95.73055    98.41543    97.07299
4.878   95.72847    98.41714    97.0728
4.889   95.72637    98.41885    97.07261
4.898   95.72433    98.42048    97.0724
4.908   95.72225    98.42212    97.07219
4.918   95.72025    98.42369    97.07197
4.928   95.71821    98.42526    97.07173
4.938   95.71623    98.42675    97.07149
4.948   95.71423    98.42824    97.07124
4.958   95.71224    98.4297 97.07097
4.968   95.71026    98.43112    97.07069
4.978   95.7083 98.43249    97.0704
4.988   95.7064 98.4338 97.0701
4.998   95.70447    98.4351 97.06978
5.009   95.70249    98.4364 97.06945
5.018   95.70062    98.4376 97.06911
5.028   95.69876    98.43876    97.06876
5.038   95.6969 98.43989    97.0684
5.049   95.69492    98.44105    97.06799
5.058   95.69309    98.4421 97.06759
5.068   95.69127    98.44311    97.06719
5.078   95.68945    98.44407    97.06676
5.089   95.68751    98.44507    97.06629
5.098   95.68572    98.44595    97.06584
5.108   95.68393    98.4468 97.06537
5.118   95.68215    98.4476 97.06488
5.129   95.68025    98.44842    97.06434
5.138   95.67849    98.44914    97.06382
5.148   95.67674    98.44982    97.06328
5.158   95.67499    98.45046    97.06273
5.169   95.67312    98.4511 97.06211
5.178   95.67139    98.45165    97.06152
5.188   95.66967    98.45216    97.06091
5.198   95.66795    98.45263    97.06029
5.208   95.66611    98.45309    97.0596
5.218   95.6644 98.45347    97.05894
5.228   95.66271    98.45381    97.05826
5.238   95.66102    98.4541 97.05756
5.248   95.6592 98.45437    97.05679
5.258   95.65752    98.45458    97.05605
5.268   95.65585    98.45474    97.05529
5.279   95.65405    98.45487    97.05446
5.288   95.65239    98.45494    97.05367
5.298   95.65074    98.45497    97.05285
5.308   95.64909    98.45496    97.05202
5.318   95.64732    98.4549 97.05111
5.328   95.64568    98.45479    97.05023
5.338   95.64404    98.45465    97.04934
5.348   95.64241    98.45446    97.04843
5.358   95.64066    98.4542 97.04743
5.368   95.63904    98.45392    97.04648
5.378   95.63743    98.4536 97.04551
5.388   95.6357 98.4532 97.04445
5.398   95.63409    98.45279    97.04344
5.408   95.63249    98.45233    97.04241
5.418   95.6309 98.45183    97.04136
5.428   95.62919    98.45124    97.04021
5.438   95.62761    98.45065    97.03913
5.448   95.62603    98.45001    97.03802
5.458   95.62433    98.44928    97.03681
5.468   95.62276    98.44856    97.03566
5.478   95.6212 98.44779    97.03449
5.488   95.61952    98.44691    97.03322
5.498   95.61797    98.44606    97.03201
5.508   95.61642    98.44516    97.03079
5.518   95.61488    98.44421    97.02955
5.528   95.61322    98.44315    97.02819
5.538   95.61169    98.44212    97.02691
5.548   95.61017    98.44105    97.02561
5.558   95.60853    98.43985    97.02419
5.568   95.60702    98.43869    97.02285
5.578   95.60551    98.43748    97.0215
5.588   95.60389    98.43614    97.02002
5.598   95.6024 98.43486    97.01863
5.608   95.60091    98.43353    97.01722
5.618   95.59931    98.43205    97.01568
5.628   95.59784    98.43064    97.01424
5.638   95.59637    98.42918    97.01278
5.648   95.59479    98.42757    97.01118
5.658   95.59334    98.42604    97.00969
5.668   95.59189    98.42446    97.00817
5.678   95.59034    98.42272    97.00653
5.688   95.58891    98.42106    97.00498
5.698   95.58748    98.41936    97.00342
5.708   95.58596    98.41749    97.00172
5.718   95.58455    98.41571    97.00013
5.728   95.58315    98.4139 96.99852
5.738   95.58165    98.4119 96.99678
5.748   95.58027    98.41   96.99514
5.758   95.5789 98.40807    96.99349
5.768   95.57743    98.40595    96.99169
5.778   95.57608    98.40395    96.99001
5.788   95.57474    98.4019 96.98832
5.798   95.5733 98.39966    96.98648
5.808   95.57198    98.39755    96.98476
5.818   95.57067    98.3954 96.98303
5.828   95.56927    98.39304    96.98115
5.838   95.56798    98.39082    96.9794
5.847   95.5667 98.38856    96.97763
5.858   95.56534    98.38609    96.97572
5.868   95.56409    98.38377    96.97393
5.878   95.56275    98.38122    96.97199
5.888   95.56152    98.37883    96.97018
5.898   95.56031    98.37641    96.96836
5.908   95.55901    98.37376    96.96639
5.918   95.55783    98.37127    96.96455
5.927   95.55665    98.36875    96.9627
5.938   95.55541    98.366  96.9607
5.948   95.55426    98.36341    96.95884
5.958   95.55305    98.3606 96.95682
5.968   95.55194    98.35796    96.95495
5.978   95.55084    98.35529    96.95306
5.988   95.54967    98.35238    96.95103
5.998   95.54861    98.34965    96.94913
6.008   95.54748    98.34668    96.94708
6.018   95.54645    98.34389    96.94517
6.028   95.54544    98.34108    96.94326
6.038   95.54437    98.33803    96.9412
6.048   95.54339    98.33516    96.93928
6.057   95.54244    98.33228    96.93736
6.068   95.54143    98.32914    96.93528
6.078   95.54051    98.3262 96.93336
6.088   95.53954    98.32302    96.93128
6.098   95.53866    98.32003    96.92935
6.108   95.53774    98.31679    96.92727
6.118   95.5369 98.31376    96.92533
6.127   95.53609    98.31071    96.9234
6.138   95.53523    98.30741    96.92132
6.148   95.53446    98.30431    96.91939
6.158   95.53366    98.30096    96.91731
6.168   95.53294    98.29783    96.91538
6.177   95.53223    98.29468    96.91346
6.188   95.53151    98.29127    96.91139
6.197   95.53085    98.28808    96.90947
6.208   95.53018    98.28463    96.9074
6.218   95.52957    98.28141    96.90549
6.228   95.52895    98.27792    96.90344
6.238   95.5284 98.27467    96.90154
6.247   95.52788    98.27141    96.89964
6.258   95.52734    98.26787    96.89761
6.267   95.52687    98.26458    96.89572
6.278   95.5264 98.26101    96.8937
6.288   95.52598    98.25769    96.89184
6.298   95.52557    98.2541 96.88983
6.308   95.52521    98.25075    96.88798
6.317   95.52488    98.2474 96.88614
6.328   95.52456    98.24377    96.88417
6.337   95.52429    98.24039    96.88234
6.348   95.52404    98.23675    96.88039
6.357   95.52383    98.23335    96.87859
6.368   95.52364    98.22969    96.87667
6.377   95.5235 98.22628    96.87489
6.388   95.52338    98.22259    96.87299
6.397   95.52331    98.21917    96.87124
6.408   95.52326    98.21547    96.86937
6.418   95.52325    98.21204    96.86764
6.427   95.52327    98.2086 96.86593
6.438   95.52333    98.20489    96.86411
6.447   95.52342    98.20144    96.86243
6.458   95.52356    98.19772    96.86064
6.467   95.52372    98.19426    96.85899
6.478   95.52394    98.19054    96.85724
6.487   95.52417    98.18708    96.85562
6.498   95.52446    98.18335    96.85391
6.507   95.52477    98.17989    96.85233
6.518   95.52514    98.17616    96.85065
6.527   95.52553    98.1727 96.84912
6.538   95.52598    98.16898    96.84748
6.547   95.52644    98.16552    96.84598
6.558   95.52698    98.1618 96.84439
6.567   95.52752    98.15834    96.84293
6.578   95.52814    98.15463    96.84139
6.587   95.52876    98.15118    96.83997
6.598   95.52947    98.14747    96.83847
6.607   95.53017    98.14404    96.8371
6.618   95.53097    98.14034    96.83565
6.627   95.53175    98.13691    96.83433
6.638   95.53263    98.13323    96.83293
6.647   95.5335 98.12981    96.83166
6.658   95.53448    98.12614    96.83031
6.667   95.53543    98.12274    96.82908
6.678   95.53649    98.11909    96.82779
6.687   95.53753    98.1157 96.82662
6.698   95.53869    98.11207    96.82538
6.707   95.53981    98.1087 96.82426
6.717   95.54107    98.10508    96.82308
6.727   95.54228    98.10173    96.82201
6.737   95.54363    98.09814    96.82089
6.747   95.54493    98.09481    96.81987
6.757   95.54638    98.09124    96.81881
6.767   95.54777    98.08794    96.81785
6.777   95.54931    98.08439    96.81685
6.788   95.5509 98.08086    96.81588
6.797   95.55243    98.07759    96.81501
6.808   95.55412    98.07409    96.81411
6.817   95.55574    98.07085    96.81329
6.828   95.55753    98.06737    96.81245
6.837   95.55924    98.06415    96.8117
6.847   95.56114    98.06071    96.81092
6.857   95.56294    98.05752    96.81023
6.867   95.56493    98.05411    96.80952
6.877   95.56683    98.05095    96.80889
6.887   95.56892    98.04757    96.80824
6.898   95.57106    98.0442 96.80763
6.907   95.5731 98.04109    96.8071
6.917   95.57535    98.03776    96.80655
6.927   95.57748    98.03468    96.80608
6.937   95.57983    98.03138    96.8056
6.947   95.58206    98.02833    96.80519
6.957   95.5845 98.02507    96.80479
6.968   95.58701    98.02182    96.80441
6.977   95.58938    98.01883    96.8041
6.987   95.59198    98.01562    96.8038
6.997   95.59444    98.01265    96.80355
7.007   95.59714    98.00948    96.80331
7.017   95.5997 98.00655    96.80313
7.027   95.60251    98.00342    96.80296
7.037   95.60536    98.0003 96.80283
7.047   95.60806    97.99742    96.80274
7.057   95.61102    97.99434    96.80268
7.067   95.61381    97.9915 96.80265
7.077   95.61686    97.98845    96.80266
7.087   95.61997    97.98543    96.8027
7.097   95.6229 97.98263    96.80277
7.107   95.6261 97.97964    96.80287
7.117   95.62912    97.97689    96.803
7.127   95.63243    97.97393    96.80318
7.137   95.63578    97.971  96.80339
7.147   95.63893    97.96829    96.80361
7.157   95.64238    97.96539    96.80388
7.167   95.64587    97.9625 96.80419
7.177   95.64916    97.95984    96.8045
7.187   95.65275    97.95699    96.80487
7.197   95.65612    97.95436    96.80524
7.207   95.6598 97.95154    96.80567
7.217   95.66353    97.94874    96.80613
7.227   95.66703    97.94615    96.80659
7.237   95.67085    97.94338    96.80711
7.247   95.67471    97.94062    96.80766
7.257   95.67833    97.93808    96.8082
7.267   95.68227    97.93535    96.80881
7.277   95.68598    97.93282    96.8094
7.287   95.69   97.93012    96.81006
7.297   95.69407    97.92743    96.81075
7.307   95.69789    97.92494    96.81142
7.317   95.70204    97.92227    96.81216
7.327   95.70623    97.91961    96.81292
7.337   95.71015    97.91715    96.81365
7.347   95.71442    97.91451    96.81447
7.357   95.71872    97.91188    96.8153
7.367   95.72274    97.90945    96.8161
7.377   95.72712    97.90683    96.81697
7.387   95.73152    97.90422    96.81787
7.397   95.73564    97.9018 96.81872
7.407   95.74011    97.8992 96.81966
7.417   95.74462    97.89661    96.82061
7.427   95.74883    97.8942 96.82151
7.437   95.75339    97.89161    96.8225
7.447   95.75798    97.88902    96.8235
7.457   95.76227    97.88661    96.82444
7.467   95.76691    97.88402    96.82547
7.477   95.77158    97.88143    96.82651
7.487   95.77628    97.87883    96.82755
7.497   95.78066    97.87641    96.82854
7.507   95.7854 97.87381    96.8296
7.517   95.79016    97.87119    96.83068
7.527   95.79459    97.86876    96.83168
7.537   95.79939    97.86613    96.83276
7.547   95.8042 97.86349    96.83385
7.557   95.80868    97.86103    96.83486
7.567   95.81352    97.85836    96.83594
7.577   95.81838    97.85568    96.83703
7.587   95.82324    97.85299    96.83811
7.597   95.82777    97.85047    96.83912
7.607   95.83265    97.84774    96.84019
7.617   95.83753    97.84499    96.84126
7.627   95.84208    97.84241    96.84224
7.637   95.84697    97.83962    96.84329
7.647   95.85187    97.83679    96.84433
7.657   95.85676    97.83394    96.84535
7.667   95.86131    97.83127    96.84629
7.677   95.8662 97.82837    96.84728
7.687   95.87108    97.82543    96.84825
7.697   95.87596    97.82245    96.84921
7.707   95.88048    97.81966    96.85007
7.717   95.88533    97.81661    96.85097
7.727   95.89017    97.81353    96.85185
7.737   95.895  97.8104 96.8527
7.747   95.89947    97.80745    96.85346
7.757   95.90426    97.80424    96.85425
7.767   95.90902    97.80097    96.855
7.777   95.91377    97.79765    96.85571
7.787   95.91815    97.79453    96.85634
7.797   95.92284    97.79111    96.85697
7.807   95.9275 97.78763    96.85756
7.817   95.93212    97.78409    96.85811
7.826   95.93639    97.78074    96.85857
7.837   95.94094    97.77708    96.85901
7.847   95.94546    97.77335    96.8594
7.857   95.94993    97.76955    96.85974
7.867   95.95435    97.76568    96.86001
7.877   95.95842    97.76202    96.86022
7.887   95.96274    97.75799    96.86037
7.897   95.96702    97.75389    96.86046
7.907   95.97124    97.74971    96.86047
7.916   95.9751 97.74574    96.86042
7.927   95.9792 97.74139    96.86029
7.937   95.98324    97.73694    96.86009
7.947   95.98721    97.7324 96.8598
7.957   95.9911 97.72776    96.85943
7.967   95.99493    97.72301    96.85897
7.976   95.99841    97.71852    96.85846
7.987   96.00208    97.71357    96.85782
7.997   96.00566    97.70851    96.85709
8.007   96.00917    97.70334    96.85625
8.017   95.99373    97.70969    96.85171
8.026   95.99754    97.70696    96.85225
8.036   96.00164    97.70403    96.85284
8.047   96.00575    97.70112    96.85343
8.057   96.00985    97.69821    96.85403
8.067   96.01396    97.69532    96.85464
8.077   96.01807    97.69244    96.85526
8.086   96.02188    97.68978    96.85583
8.096   96.02599    97.68692    96.85646
8.107   96.0301 97.68408    96.85709
8.117   96.0342 97.68125    96.85772
8.127   96.03831    97.67843    96.85837
8.137   96.04241    97.67562    96.85902
8.147   96.04651    97.67283    96.85967
8.156   96.05032    97.67024    96.86028
8.166   96.05442    97.66747    96.86095
8.177   96.05852    97.66472    96.86162
8.187   96.06262    97.66197    96.8623
8.197   96.06671    97.65924    96.86298
8.207   96.0708 97.65653    96.86366
8.217   96.07489    97.65382    96.86436
8.226   96.07869    97.65133    96.86501
8.236   96.08277    97.64865    96.86571
8.246   96.08685    97.64599    96.86642
8.256   96.09092    97.64334    96.86713
8.267   96.095  97.6407 96.86785
8.277   96.09906    97.63808    96.86857
8.287   96.10313    97.63548    96.8693
8.297   96.10719    97.63288    96.87004
8.307   96.11124    97.63031    96.87077
8.316   96.115  97.62793    96.87146
8.326   96.11905    97.62538    96.87221
8.336   96.12309    97.62284    96.87296
8.346   96.12712    97.62032    96.87372
8.356   96.13115    97.61782    96.87448
8.366   96.13517    97.61533    96.87525
8.377   96.13919    97.61286    96.87602
8.387   96.1432 97.6104 96.8768
8.397   96.1472 97.60796    96.87758
8.407   96.1512 97.60553    96.87836
8.417   96.15519    97.60312    96.87915
8.427   96.15917    97.60072    96.87995
8.436   96.16287    97.59851    96.88069
8.446   96.16684    97.59614    96.88149
8.456   96.1708 97.59379    96.8823
8.466   96.17475    97.59146    96.88311
8.476   96.17869    97.58914    96.88392
8.486   96.18263    97.58684    96.88474
8.496   96.18656    97.58456    96.88556
8.506   96.19048    97.58229    96.88639
8.516   96.19439    97.58004    96.88722
8.526   96.19829    97.57781    96.88805
8.536   96.20218    97.57559    96.88889
8.546   96.20607    97.57339    96.88973
8.556   96.20994    97.57121    96.89057
8.566   96.2138 97.56904    96.89142
8.576   96.21765    97.56689    96.89227
8.586   96.2215 97.56476    96.89313
8.596   96.22533    97.56265    96.89399
8.606   96.22915    97.56055    96.89485
8.617   96.23296    97.55847    96.89572
8.627   96.23676    97.55641    96.89659
8.637   96.24055    97.55437    96.89746
8.647   96.24433    97.55234    96.89833
8.657   96.24809    97.55033    96.89921
8.667   96.25184    97.54834    96.90009
8.676   96.25559    97.54637    96.90098
8.686   96.25931    97.54442    96.90187
8.696   96.26303    97.54248    96.90276
8.706   96.26674    97.54057    96.90365
8.716   96.27043    97.53867    96.90455
8.726   96.27411    97.53679    96.90545
8.736   96.27777    97.53493    96.90635
8.746   96.28142    97.53309    96.90726
8.756   96.28506    97.53126    96.90816
8.766   96.28869    97.52946    96.90907
8.776   96.2923 97.52767    96.90999
8.786   96.2959 97.52591    96.9109
8.796   96.29948    97.52416    96.91182
8.806   96.30305    97.52243    96.91274
8.816   96.3066 97.52072    96.91366
8.826   96.31014    97.51903    96.91459
8.836   96.31367    97.51736    96.91551
8.846   96.31718    97.51571    96.91644
8.856   96.32067    97.51408    96.91737
8.866   96.32415    97.51246    96.91831
8.876   96.32761    97.51087    96.91924
8.886   96.33106    97.5093 96.92018
8.897   96.33474    97.50764    96.92119
8.906   96.33815    97.5061 96.92213
8.916   96.34155    97.50459    96.92307
8.926   96.34494    97.5031 96.92402
8.936   96.3483 97.50163    96.92496
8.946   96.35165    97.50018    96.92591
8.956   96.35498    97.49875    96.92686
8.966   96.3583 97.49734    96.92782
8.976   96.36159    97.49594    96.92877
8.986   96.36488    97.49457    96.92972
8.996   96.36814    97.49322    96.93068
9.006   96.37138    97.4919 96.93164
9.016   96.37484    97.49049    96.93267
9.026   96.37805    97.48921    96.93363
9.036   96.38124    97.48794    96.93459
9.046   96.38441    97.4867 96.93555
9.056   96.38756    97.48547    96.93652
9.066   96.3907 97.48427    96.93748
9.076   96.39381    97.48309    96.93845
9.086   96.39691    97.48193    96.93942
9.096   96.39999    97.48079    96.94039
9.106   96.40327    97.47959    96.94143
9.116   96.4063 97.47849    96.9424
9.126   96.40932    97.47742    96.94337
9.136   96.41232    97.47636    96.94434
9.146   96.4153 97.47533    96.94531
9.156   96.41826    97.47432    96.94629
9.166   96.4212 97.47333    96.94726
9.176   96.42432    97.47229    96.94831
9.186   96.42722    97.47135    96.94928
9.196   96.4301 97.47042    96.95026
9.206   96.43295    97.46952    96.95124
9.216   96.43579    97.46864    96.95221
9.226   96.4386 97.46778    96.95319
9.236   96.44159    97.46688    96.95424
9.246   96.44436    97.46607    96.95522
9.256   96.44711    97.46528    96.9562
9.266   96.44984    97.46451    96.95717
9.276   96.45255    97.46376    96.95815
9.286   96.45542    97.46298    96.9592
9.296   96.45808    97.46228    96.96018
9.306   96.46072    97.4616 96.96116
9.316   96.46334    97.46094    96.96214
9.326   96.46593    97.4603 96.96312
9.336   96.46869    97.45965    96.96417
9.346   96.47124    97.45906    96.96515
9.356   96.47376    97.45849    96.96613
9.366   96.47626    97.45794    96.9671
9.376   96.47874    97.45742    96.96808
9.386   96.48138    97.45688    96.96913
9.396   96.48381    97.45641    96.97011
9.406   96.48622    97.45595    96.97108
9.416   96.4886 97.45552    96.97206
9.426   96.49113    97.45508    96.97311
9.436   96.49347    97.45469    96.97408
9.446   96.49578    97.45433    96.97506
9.456   96.49807    97.45399    96.97603
9.466   96.50034    97.45367    96.977
9.476   96.50274    97.45335    96.97805
9.486   96.50495    97.45308    96.97902
9.496   96.50714    97.45283    96.97999
9.506   96.50946    97.45259    96.98103
9.516   96.5116 97.45239    96.982
9.526   96.51372    97.45221    96.98297
9.536   96.51581    97.45205    96.98393
9.546   96.51803    97.45191    96.98497
9.556   96.52007    97.4518 96.98593
9.566   96.52208    97.45172    96.9869
9.575   96.52407    97.45165    96.98786
9.586   96.52617    97.45161    96.98889
9.596   96.52811    97.45159    96.98985
9.606   96.53002    97.4516 96.99081
9.616   96.53205    97.45163    96.99184
9.626   96.5339 97.45169    96.9928
9.636   96.53574    97.45176    96.99375
9.646   96.53767    97.45187    96.99477
9.656   96.53946    97.45199    96.99572
9.666   96.54121    97.45214    96.99668
9.675   96.54294    97.45231    96.99763
9.686   96.54476    97.45252    96.99864
9.696   96.54644    97.45274    96.99959
9.705   96.54808    97.45298    97.00053
9.716   96.54982    97.45326    97.00154
9.726   96.55141    97.45355    97.00248
9.735   96.55298    97.45386    97.00342
9.746   96.55463    97.45422    97.00442
9.756   96.55614    97.45458    97.00536
9.766   96.55773    97.45499    97.00636
9.776   96.55919    97.4554 97.00729
9.786   96.56061    97.45583    97.00822
9.796   96.56212    97.45631    97.00921
9.806   96.56349    97.45679    97.01014
9.815   96.56483    97.45729    97.01106
9.826   96.56625    97.45785    97.01205
9.836   96.56754    97.4584 97.01297
9.845   96.5688 97.45897    97.01389
9.856   96.57012    97.45961    97.01486
9.865   96.57132    97.46023    97.01578
9.876   96.57259    97.46092    97.01675
9.886   96.57373    97.46158    97.01766
9.895   96.57485    97.46227    97.01856
9.906   96.57602    97.46304    97.01953
9.915   96.57709    97.46378    97.02043
9.926   96.57819    97.46459    97.02139
9.936   96.5792 97.46538    97.02229
9.945   96.58017    97.46618    97.02318
9.956   96.58119    97.46708    97.02413
9.965   96.58211    97.46793    97.02502
9.976   96.58306    97.46887    97.02597
9.985   96.58392    97.46978    97.02685
9.996   96.58481    97.47077    97.02779
10.006  96.58561    97.47172    97.02867
10.015  96.58639    97.47269    97.02954
10.026  96.58718    97.47376    97.03047
10.035  96.5879 97.47478    97.03134
10.046  96.58863    97.4759 97.03227
10.055  96.58928    97.47697    97.03313
10.066  96.58995    97.47814    97.03405
10.075  96.59055    97.47925    97.0349
10.086  96.59116    97.48047    97.03581
10.095  96.59169    97.48164    97.03666
10.106  96.59223    97.48291    97.03757
10.115  96.59271    97.48412    97.03841
10.126  96.59319    97.48544    97.03931
10.135  96.5936 97.48669    97.04015
10.145  96.59399    97.48797    97.04098
10.155  96.59437    97.48937    97.04187
10.165  96.5947 97.49069    97.0427
10.175  96.59502    97.49214    97.04358
10.185  96.59529    97.49351    97.0444
10.195  96.59554    97.49501    97.04527
10.206  96.59576    97.49653    97.04615
10.215  96.59594    97.49797    97.04695
10.226  96.59609    97.49954    97.04782
10.235  96.59621    97.50103    97.04862
10.246  96.5963 97.50265    97.04948
10.255  96.59635    97.50419    97.05027
10.266  96.59638    97.50586    97.05112
10.275  96.59637    97.50744    97.05191
10.286  96.59633    97.50916    97.05275
10.295  96.59626    97.51079    97.05353
10.306  96.59616    97.51256    97.05436
10.315  96.59603    97.51423    97.05513
10.325  96.59586    97.51605    97.05596
10.336  96.59566    97.51789    97.05677
10.345  96.59544    97.51964    97.05754
10.356  96.59517    97.52153    97.05835
10.365  96.59489    97.52332    97.0591
10.375  96.59455    97.52526    97.0599
10.385  96.59421    97.52709    97.06065
10.395  96.59381    97.52908    97.06144
10.406  96.59337    97.53109    97.06223
10.415  96.59294    97.533  97.06297
10.426  96.59244    97.53506    97.06375
10.435  96.59194    97.537  97.06447
10.445  96.59138    97.53911    97.06525
10.456  96.59078    97.54125    97.06601
10.465  96.59019    97.54326    97.06673
10.475  96.58953    97.54545    97.06749
10.485  96.58888    97.5475 97.06819
10.495  96.58815    97.54973    97.06894
10.506  96.58738    97.55199    97.06969
10.515  96.58664    97.55411    97.07038
10.525  96.58581    97.55642    97.07111
10.536  96.58495    97.55874    97.07184
10.545  96.58411    97.56093    97.07252
10.555  96.58318    97.56331    97.07324
10.566  96.58222    97.5657 97.07396
10.575  96.58129    97.56796    97.07463
10.585  96.58026    97.5704 97.07533
10.595  96.57927    97.5727 97.07599
10.605  96.57818    97.57519    97.07669
10.615  96.57706    97.57771    97.07738
10.626  96.5759 97.58024    97.07807
10.635  96.57478    97.58263    97.07871
10.645  96.57356    97.58521    97.07938
10.655  96.5723 97.58782    97.08006
10.665  96.57109    97.59027    97.08068
10.675  96.56977    97.59292    97.08135
10.685  96.56841    97.5956 97.082
10.695  96.56711    97.59811    97.08261
10.705  96.56569    97.60083    97.08326
10.715  96.56424    97.60357    97.0839
10.725  96.56275    97.60634    97.08454
10.735  96.56133    97.60894    97.08513
10.745  96.55977    97.61175    97.08576
10.755  96.55819    97.61458    97.08638
10.765  96.55668    97.61724    97.08696
10.775  96.55503    97.62012    97.08757
10.785  96.55334    97.62302    97.08818
10.795  96.55162    97.62594    97.08878
10.805  96.54999    97.62868    97.08934
10.815  96.54821    97.63165    97.08993
10.825  96.54639    97.63463    97.09051
10.835  96.54455    97.63764    97.09109
10.845  96.54279    97.64047    97.09163
10.855  96.54088    97.64352    97.0922
10.865  96.53894    97.64659    97.09277
10.875  96.53696    97.64969    97.09332
10.885  96.53495    97.6528 97.09388
10.895  96.53305    97.65573    97.09439
10.905  96.53097    97.65889    97.09493
10.915  96.52887    97.66207    97.09547
10.925  96.52673    97.66527    97.096
10.935  96.52456    97.66849    97.09653
10.945  96.52251    97.67152    97.09701
10.955  96.52028    97.67478    97.09753
10.965  96.51801    97.67806    97.09804
10.975  96.51571    97.68137    97.09854
10.985  96.51338    97.68469    97.09904
10.995  96.51102    97.68804    97.09953
11.005  96.50879    97.69118    97.09999
11.015  96.50637    97.69457    97.10047
11.025  96.50391    97.69798    97.10094
11.035  96.50143    97.7014 97.10141
11.045  96.49891    97.70485    97.10188
11.055  96.49636    97.70832    97.10234
11.065  96.49395    97.71157    97.10276
11.075  96.49134    97.71508    97.10321
11.085  96.4887 97.7186 97.10365
11.095  96.48602    97.72215    97.10409
11.105  96.48332    97.72572    97.10452
11.115  96.48058    97.7293 97.10494
11.125  96.47782    97.73291    97.10536
11.135  96.47502    97.73653    97.10577
11.145  96.47219    97.74017    97.10618
11.155  96.46952    97.74359    97.10656
11.165  96.46663    97.74727    97.10695
11.175  96.46371    97.75097    97.10734
11.185  96.46076    97.75469    97.10773
11.195  96.45778    97.75843    97.1081
11.205  96.45477    97.76218    97.10848
11.215  96.45173    97.76596    97.10884
11.225  96.44866    97.76975    97.1092
11.235  96.44556    97.77356    97.10956
11.245  96.44243    97.77739    97.10991
11.255  96.43927    97.78124    97.11025
11.265  96.43608    97.7851 97.11059
11.275  96.43285    97.78899    97.11092
11.285  96.4296 97.79289    97.11125
11.295  96.42632    97.79681    97.11156
11.305  96.42301    97.80074    97.11188
11.315  96.41968    97.8047 97.11219
11.325  96.41631    97.80867    97.11249
11.335  96.41291    97.81265    97.11278
11.345  96.40949    97.81666    97.11307
11.355  96.40603    97.82068    97.11336
11.365  96.40255    97.82472    97.11363
11.375  96.39903    97.82878    97.11391
11.385  96.39549    97.83285    97.11417
11.395  96.39192    97.83694    97.11443
11.405  96.38833    97.84105    97.11469
11.415  96.3847 97.84517    97.11493
11.425  96.38105    97.84931    97.11518
11.435  96.37736    97.85346    97.11541
11.445  96.37365    97.85763    97.11564
11.455  96.36992    97.86182    97.11587
11.465  96.36615    97.86602    97.11608
11.475  96.36236    97.87024    97.1163
11.485  96.35854    97.87447    97.1165
11.495  96.35469    97.87872    97.1167
11.505  96.35082    97.88298    97.1169
11.515  96.34691    97.88726    97.11709
11.525  96.34298    97.89155    97.11727
11.535  96.33903    97.89586    97.11744
11.544  96.33505    97.90018    97.11762
11.554  96.33104    97.90452    97.11778
11.565  96.32673    97.90916    97.11795
11.575  96.32267    97.91353    97.1181
11.585  96.31858    97.91791    97.11825
11.595  96.31446    97.92231    97.11839
11.605  96.31032    97.92672    97.11852
11.615  96.30616    97.93114    97.11865
11.625  96.30196    97.93558    97.11877
11.634  96.29774    97.94003    97.11889
11.644  96.2935 97.9445 97.119
11.655  96.28895    97.94927    97.11911
11.665  96.28465    97.95377    97.11921
11.675  96.28033    97.95827    97.1193
11.685  96.27598    97.96279    97.11939
11.694  96.27161    97.96732    97.11947
11.704  96.26722    97.97186    97.11954
11.715  96.26251    97.97672    97.11961
11.725  96.25806    97.98129    97.11968
11.735  96.25359    97.98587    97.11973
11.745  96.2491 97.99047    97.11978
11.754  96.24458    97.99507    97.11983
11.764  96.24004    97.99969    97.11987
11.775  96.23517    98.00463    97.1199
11.785  96.23058    98.00927    97.11993
11.794  96.22597    98.01392    97.11995
11.804  96.22134    98.01859    97.11996
11.815  96.21637    98.02358    97.11997
11.825  96.21168    98.02827    97.11998
11.835  96.20698    98.03296    97.11997
11.844  96.20225    98.03767    97.11996
11.854  96.1975 98.04239    97.11995
11.865  96.19241    98.04744    97.11993
11.875  96.18762    98.05218    97.1199
11.884  96.1828 98.05693    97.11987
11.894  96.17796    98.0617 97.11983
11.905  96.17278    98.06679    97.11978
11.914  96.16789    98.07157    97.11973
11.924  96.16299    98.07636    97.11967
11.935  96.15773    98.08148    97.11961
11.945  96.15279    98.0863 97.11954
11.954  96.14782    98.09112    97.11947
11.964  96.14283    98.09595    97.11939
11.975  96.13748    98.10111    97.1193
11.984  96.13245    98.10596    97.11921
11.994  96.1274 98.11082    97.11911
12.005  96.12199    98.11601    97.119
12.014  96.1169 98.12088    97.11889
12.024  96.11179    98.12577    97.11878
12.035  96.10632    98.13098    97.11865
12.044  96.10116    98.13588    97.11852
12.054  96.09599    98.14079    97.11839
12.065  96.09046    98.14604    97.11825
12.074  96.08525    98.15096    97.1181
12.084  96.08002    98.15589    97.11796
12.095  96.07442    98.16116    97.11779
12.104  96.06916    98.1661 97.11763
12.115  96.06352    98.17139    97.11745
12.124  96.05822    98.17635    97.11728
12.134  96.0529 98.18132    97.11711
12.145  96.0472 98.18662    97.11691
12.154  96.04185    98.1916 97.11672
12.165  96.03611    98.19692    97.11652
12.174  96.03072    98.20191    97.11632
12.184  96.02531    98.20691    97.11611
12.194  96.01953    98.21225    97.11589
12.204  96.01408    98.21726    97.11567
12.215  96.00826    98.22261    97.11544
12.224  96.00278    98.22764    97.11521
12.235  95.99692    98.233  97.11496
12.244  95.99142    98.23803    97.11472
12.254  95.98589    98.24307    97.11448
12.264  95.97998    98.24845    97.11422
12.274  95.97443    98.2535 97.11396
12.284  95.96848    98.25888    97.11368
12.294  95.9629 98.26394    97.11342
12.304  95.95692    98.26934    97.11313
12.314  95.9513 98.2744 97.11285
12.324  95.9453 98.27981    97.11256
12.334  95.93965    98.28488    97.11227
12.344  95.93361    98.2903 97.11196
12.354  95.92794    98.29538    97.11166
12.364  95.92187    98.3008 97.11134
12.374  95.91617    98.30589    97.11103
12.384  95.91007    98.31132    97.1107
12.394  95.90435    98.31641    97.11038
12.404  95.89822    98.32185    97.11003
12.414  95.89247    98.32694    97.10971
12.424  95.88631    98.33239    97.10935
12.435  95.88015    98.33783    97.10899
12.444  95.87435    98.34293    97.10864
12.454  95.86816    98.34838    97.10827
12.464  95.86234    98.35349    97.10792
12.474  95.85613    98.35894    97.10753
12.484  95.85029    98.36405    97.10717
12.494  95.84404    98.36951    97.10678
12.504  95.83779    98.37496    97.10638
12.514  95.83192    98.38008    97.106
12.524  95.82564    98.38554    97.10559
12.534  95.81974    98.39065    97.1052
12.544  95.81344    98.39611    97.10478
12.554  95.80713    98.40157    97.10435
12.564  95.80121    98.40669    97.10395
12.574  95.79487    98.41215    97.10351
12.584  95.78853    98.41761    97.10307
12.594  95.78258    98.42273    97.10265
12.604  95.77621    98.42819    97.1022
12.614  95.77024    98.4333 97.10177
12.624  95.76386    98.43876    97.10131
12.634  95.75747    98.44422    97.10084
12.644  95.75147    98.44933    97.1004
12.654  95.74506    98.45479    97.09993
12.664  95.73865    98.46024    97.09944
12.674  95.73222    98.46569    97.09896
12.684  95.72619    98.4708 97.0985
12.694  95.71975    98.47625    97.098
12.704  95.7133 98.48169    97.0975
12.714  95.70725    98.4868 97.09702
12.724  95.70079    98.49224    97.09651
12.734  95.69432    98.49768    97.096
12.744  95.68784    98.50311    97.09548
12.754  95.68176    98.5082 97.09498
12.764  95.67527    98.51363    97.09445
12.774  95.66878    98.51906    97.09392
12.784  95.66228    98.52448    97.09338
12.794  95.65618    98.52956    97.09287
12.804  95.64967    98.53497    97.09232
12.814  95.64315    98.54038    97.09177
12.824  95.63663    98.54579    97.09121
12.834  95.63051    98.55086    97.09068
12.844  95.62398    98.55625    97.09012
12.854  95.61744    98.56165    97.08954
12.864  95.6109 98.56703    97.08897
12.874  95.60436    98.57242    97.08839
12.884  95.59781    98.57779    97.0878
12.894  95.59167    98.58283    97.08725
12.904  95.58512    98.5882 97.08666
12.914  95.57857    98.59356    97.08606
12.924  95.57201    98.59891    97.08546
12.934  95.56545    98.60426    97.08485
12.944  95.55888    98.6096 97.08424
12.954  95.55273    98.6146 97.08367
12.964  95.54616    98.61993    97.08305
12.974  95.5396 98.62526    97.08243
12.984  95.53303    98.63057    97.0818
12.994  95.52646    98.63588    97.08117
13.004  95.51989    98.64118    97.08053
13.014  95.51332    98.64647    97.07989
13.024  95.50675    98.65176    97.07925
13.034  95.50017    98.65704    97.0786
13.044  95.4936 98.66231    97.07795
13.054  95.48744    98.66724    97.07734
13.064  95.48087    98.67249    97.07668
13.074  95.4743 98.67774    97.07602
13.084  95.46774    98.68297    97.07535
13.094  95.46117    98.6882 97.07468
13.104  95.45461    98.69342    97.07401
13.114  95.44804    98.69863    97.07333
13.124  95.44148    98.70382    97.07265
13.134  95.43492    98.70901    97.07197
13.144  95.42837    98.71419    97.07128
13.154  95.42182    98.71936    97.07059
13.164  95.41527    98.72452    97.0699
13.174  95.40872    98.72967    97.0692
13.184  95.40218    98.73481    97.06849
13.194  95.39564    98.73994    97.06779
13.204  95.3891 98.74506    97.06708
13.214  95.38257    98.75016    97.06637
13.224  95.37605    98.75526    97.06565
13.234  95.36953    98.76034    97.06493
13.244  95.36301    98.76542    97.06421
13.253  95.3565 98.77048    97.06349
13.263  95.34999    98.77553    97.06276
13.274  95.34309    98.78088    97.06198
13.284  95.33659    98.7859 97.06125
13.294  95.3301 98.79091    97.06051
13.304  95.32362    98.79591    97.05977
13.314  95.31715    98.8009 97.05902
13.324  95.31068    98.80587    97.05828
13.334  95.30422    98.81084    97.05753
13.344  95.29777    98.81578    97.05678
13.353  95.29132    98.82072    97.05602
13.364  95.28448    98.82595    97.05521
13.374  95.27805    98.83085    97.05445
13.384  95.27163    98.83575    97.05369
13.394  95.26522    98.84063    97.05292
13.404  95.25881    98.84549    97.05215
13.413  95.25242    98.85034    97.05138
13.423  95.24603    98.85518    97.05061
13.434  95.23926    98.8603 97.04978
13.444  95.23289    98.86511    97.049
13.454  95.22654    98.8699 97.04822
13.463  95.22019    98.87467    97.04743
13.473  95.21386    98.87943    97.04665
13.484  95.20714    98.88448    97.04581
13.494  95.20082    98.8892 97.04501
13.504  95.19452    98.89392    97.04422
13.513  95.18823    98.89862    97.04342
13.524  95.18156    98.90359    97.04257
13.534  95.17529    98.90825    97.04177
13.543  95.16904    98.9129 97.04097
13.553  95.1628 98.91753    97.04016
13.564  95.15618    98.92243    97.03931
13.574  95.14996    98.92703    97.0385
13.583  95.14376    98.93161    97.03768
13.594  95.13718    98.93646    97.03682
13.604  95.131  98.941  97.036
13.613  95.12484    98.94553    97.03519
13.624  95.11831    98.95032    97.03431
13.634  95.11218    98.95481    97.03349
13.643  95.10606    98.95928    97.03267
13.653  95.09995    98.96374    97.03184
13.664  95.09348    98.96845    97.03097
13.673  95.08741    98.97287    97.03014
13.684  95.08097    98.97754    97.02925
13.694  95.07493    98.98192    97.02842
13.703  95.0689 98.98628    97.02759
13.714  95.06251    98.99089    97.0267
13.723  95.05652    98.99521    97.02587
13.733  95.05054    98.99951    97.02503
13.744  95.04421    99.00406    97.02414
13.753  95.03826    99.00832    97.02329
13.764  95.03197    99.01283    97.0224
13.773  95.02606    99.01705    97.02156
13.784  95.0198 99.02151    97.02066
13.793  95.01393    99.02569    97.01981
13.803  95.00808    99.02985    97.01896
13.813  95.00188    99.03425    97.01806
13.823  94.99606    99.03837    97.01721
13.834  94.9899 99.04272    97.01631
13.843  94.98412    99.04679    97.01546
13.854  94.978  99.0511 97.01455
13.863  94.97226    99.05513    97.0137
13.874  94.96619    99.05939    97.01279
13.883  94.96049    99.06337    97.01193
13.893  94.95445    99.06759    97.01102
13.903  94.9488 99.07153    97.01016
13.913  94.94281    99.07569    97.00925
13.923  94.93719    99.07959    97.00839
13.933  94.93125    99.08371    97.00748
13.944  94.92533    99.0878 97.00656
13.953  94.91978    99.09163    97.0057
13.964  94.9139 99.09567    97.00479
13.973  94.9084 99.09945    97.00392
13.983  94.90257    99.10344    97.00301
13.993  94.89711    99.10718    97.00214
14.003  94.89133    99.11112    97.00123
14.014  94.88558    99.11504    97.00031
14.023  94.88018    99.1187 96.99944
14.033  94.87448    99.12257    96.99852
14.044  94.8688 99.1264 96.9976
14.053  94.86348    99.12999    96.99674
14.063  94.85786    99.13378    96.99582
14.074  94.85225    99.13754    96.9949
14.083  94.84701    99.14105    96.99403
14.093  94.84146    99.14476    96.99311
14.104  94.83594    99.14844    96.99219
14.113  94.83077    99.15188    96.99132
14.123  94.8253 99.15551    96.9904
14.133  94.81986    99.1591 96.98948
14.143  94.81477    99.16247    96.98862
14.153  94.80938    99.16601    96.9877
14.163  94.80403    99.16953    96.98678
14.174  94.7987 99.17301    96.98586
14.183  94.79371    99.17627    96.98499
14.193  94.78844    99.1797 96.98407
14.203  94.7832 99.18311    96.98315
14.213  94.77799    99.18648    96.98223
14.223  94.77311    99.18963    96.98137
14.233  94.76796    99.19295    96.98045
14.243  94.76283    99.19624    96.97953
14.253  94.75774    99.19949    96.97862
14.263  94.75268    99.20272    96.9777
14.273  94.74794    99.20574    96.97684
14.283  94.74294    99.20891    96.97592
14.293  94.73797    99.21205    96.97501
14.303  94.73303    99.21516    96.9741
14.313  94.72812    99.21825    96.97318
14.323  94.72325    99.2213 96.97227
14.333  94.71869    99.22414    96.97141
14.343  94.71387    99.22713    96.9705
14.353  94.70909    99.2301 96.96959
14.363  94.70435    99.23303    96.96869
14.373  94.69963    99.23593    96.96778
14.383  94.69495    99.2388 96.96687
14.393  94.6903 99.24164    96.96597
14.403  94.68569    99.24444    96.96506
14.413  94.6811 99.24722    96.96416
14.423  94.67656    99.24996    96.96326
14.433  94.67204    99.25268    96.96236
14.443  94.66756    99.25536    96.96146
14.453  94.66312    99.25801    96.96056
14.463  94.65871    99.26062    96.95967
14.473  94.65433    99.26321    96.95877
14.483  94.64999    99.26576    96.95788
14.493  94.64569    99.26828    96.95699
14.503  94.64142    99.27077    96.9561
14.513  94.63719    99.27323    96.95521
14.523  94.63299    99.27565    96.95432
14.533  94.62883    99.27804    96.95343
14.543  94.6247 99.2804 96.95255
14.553  94.62061    99.28273    96.95167
14.563  94.61656    99.28502    96.95079
14.573  94.61254    99.28728    96.94991
14.583  94.60856    99.28951    96.94903
14.593  94.60461    99.2917 96.94816
14.603  94.60071    99.29386    96.94728
14.613  94.59684    99.29599    96.94641
14.623  94.59301    99.29808    96.94554
14.633  94.58899    99.30026    96.94463
14.643  94.58524    99.30229    96.94376
14.653  94.58152    99.30428    96.9429
14.663  94.57784    99.30623    96.94204
14.673  94.5742 99.30816    96.94118
14.683  94.5706 99.31005    96.94032
14.693  94.56683    99.31201    96.93942
14.703  94.56331    99.31383    96.93857
14.713  94.55983    99.31561    96.93772
14.723  94.55638    99.31736    96.93687
14.733  94.55298    99.31908    96.93603
14.743  94.54941    99.32086    96.93513
14.753  94.54609    99.3225 96.9343
14.763  94.54281    99.32411    96.93346
14.773  94.53956    99.32569    96.93262
14.783  94.53617    99.32731    96.93174
14.793  94.53301    99.32882    96.93091
14.803  94.52989    99.33029    96.93009
14.813  94.5268 99.33172    96.92926
14.823  94.52358    99.3332 96.92839
14.833  94.52059    99.33456    96.92757
14.843  94.51763    99.33589    96.92676
14.853  94.51454    99.33725    96.9259
14.863  94.51167    99.33851    96.92509
14.873  94.50884    99.33972    96.92428
14.883  94.50588    99.34097    96.92343
14.893  94.50313    99.34212    96.92263
14.903  94.50027    99.34329    96.92178
14.913  94.49761    99.34436    96.92099
14.923  94.49499    99.3454 96.92019
14.933  94.49226    99.34646    96.91936
14.943  94.48973    99.34742    96.91857
14.953  94.48709    99.3484 96.91774
14.963  94.48464    99.34929    96.91696
14.973  94.48224    99.35014    96.91619
14.983  94.47974    99.351  96.91537
14.993  94.47742    99.35178    96.9146
15.003  94.47501    99.35256    96.91379
15.013  94.47278    99.35327    96.91302
15.023  94.47047    99.35397    96.91222
15.033  94.46833    99.3546 96.91146
15.043  94.46611    99.35523    96.91067
15.053  94.46405    99.35578    96.90992
15.063  94.46193    99.35633    96.90913
15.072  94.45996    99.35681    96.90839
15.083  94.45793    99.35728    96.9076
15.093  94.45595    99.3577 96.90683
15.103  94.45412    99.35807    96.90609
15.113  94.45223    99.35842    96.90532
15.123  94.4505 99.35871    96.9046
15.133  94.4487 99.35897    96.90384
15.143  94.44696    99.3592 96.90308
15.153  94.44536    99.35937    96.90237
15.163  94.44371    99.35952    96.90162
15.172  94.4422 99.35962    96.90091
15.183  94.44065    99.35969    96.90017
15.193  94.43915    99.35971    96.89943
15.202  94.43778    99.3597 96.89874
15.213  94.43638    99.35964    96.89801
15.223  94.43502    99.35954    96.89728
15.233  94.43372    99.3594 96.89656
15.242  94.43254    99.35923    96.89588
15.253  94.43133    99.35902    96.89517
15.263  94.43017    99.35875    96.89446
15.273  94.42907    99.35845    96.89376
15.282  94.42807    99.35813    96.8931
15.293  94.42706    99.35775    96.89241
15.303  94.42611    99.35732    96.89171
15.313  94.4252 99.35686    96.89103
15.322  94.42439    99.35638    96.89039
15.332  94.42358    99.35583    96.88971
15.343  94.42283    99.35525    96.88904
15.353  94.42212    99.35462    96.88837
15.363  94.42147    99.35395    96.88771
15.373  94.42086    99.35323    96.88705
15.382  94.42034    99.35252    96.88643
15.392  94.41983    99.35173    96.88578
15.402  94.41938    99.3509 96.88514
15.413  94.41897    99.35002    96.8845
15.423  94.41862    99.3491 96.88386
15.433  94.41832    99.34814    96.88323
15.443  94.41807    99.34714    96.88261
15.453  94.41787    99.3461 96.88199
15.463  94.41773    99.34502    96.88137
15.473  94.41763    99.34389    96.88076
15.483  94.41759    99.34273    96.88016
15.493  94.41759    99.34152    96.87956
15.503  94.41765    99.34027    96.87896
15.513  94.41776    99.33898    96.87837
15.523  94.41792    99.33765    96.87779
15.533  94.41814    99.33628    96.87721
15.543  94.4184 99.33486    96.87663
15.553  94.41872    99.33341    96.87606
15.563  94.41908    99.33191    96.8755
15.573  94.4195 99.33037    96.87494
15.582  94.41997    99.32879    96.87438
15.592  94.42049    99.32717    96.87383
15.602  94.42106    99.32551    96.87329
15.612  94.42169    99.32381    96.87275
15.622  94.42236    99.32206    96.87221
15.633  94.42313    99.32018    96.87166
15.643  94.42391    99.31835    96.87113
15.652  94.42475    99.31648    96.87061
15.662  94.42563    99.31457    96.8701
15.672  94.42656    99.31262    96.86959
15.682  94.42755    99.31063    96.86909
15.693  94.42865    99.30849    96.86857
15.702  94.42974    99.30641    96.86808
15.712  94.43088    99.3043 96.86759
15.722  94.43208    99.30214    96.86711
15.733  94.4334 99.29982    96.86661
15.742  94.4347 99.29758    96.86614
15.752  94.43605    99.2953 96.86567
15.762  94.43745    99.29298    96.86521
15.772  94.43898    99.29049    96.86474
15.782  94.44049    99.28808    96.86429
15.792  94.44205    99.28564    96.86385
15.802  94.44375    99.28302    96.86338
15.812  94.44541    99.28049    96.86295
15.822  94.44713    99.27793    96.86253
15.832  94.44899    99.27518    96.86208
15.842  94.45081    99.27253    96.86167
15.853  94.45278    99.26969    96.86124
15.862  94.4547 99.26696    96.86083
15.872  94.45668    99.2642 96.86044
15.882  94.45881    99.26123    96.86002
15.892  94.46089    99.25838    96.85964
15.902  94.46314    99.25533    96.85923
15.912  94.46532    99.2524 96.85886
15.922  94.46767    99.24927    96.85847
15.932  94.46995    99.24625    96.8581
15.942  94.47242    99.24303    96.85773
15.952  94.4748 99.23994    96.85737
15.962  94.47738    99.23664    96.85701
15.972  94.47986    99.23347    96.85667
15.982  94.48254    99.23008    96.85631
15.992  94.48513    99.22683    96.85598
16.002  94.48792    99.22336    96.85564
16.012  94.49076    99.21984    96.8553
16.022  94.49351    99.21647    96.85499
16.032  94.49646    99.21288    96.85467
16.042  94.49946    99.20924    96.85435
16.052  94.50236    99.20575    96.85405
16.062  94.50547    99.20203    96.85375
16.072  94.50847    99.19846    96.85346
16.082  94.51168    99.19466    96.85317
16.092  94.51495    99.19081    96.85288
16.102  94.51828    99.18693    96.8526
16.112  94.52148    99.1832 96.85234
16.122  94.52491    99.17924    96.85207
16.132  94.52839    99.17523    96.85181
16.142  94.53193    99.17118    96.85155
16.152  94.53533    99.1673 96.85131
16.162  94.53897    99.16317    96.85107
16.172  94.54266    99.159  96.85083
16.182  94.5464 99.15479    96.8506
16.192  94.5502 99.15054    96.85037
16.202  94.55385    99.14647    96.85016
16.212  94.55775    99.14215    96.84995
16.222  94.5617 99.13778    96.84974
16.232  94.56571    99.13337    96.84954
16.242  94.56976    99.12892    96.84934
16.252  94.57387    99.12443    96.84915
16.262  94.57803    99.1199 96.84897
16.272  94.58224    99.11533    96.84879
16.282  94.58651    99.11073    96.84862
16.292  94.59082    99.10608    96.84845
16.302  94.59495    99.10165    96.8483
16.312  94.59937    99.09693    96.84815
16.322  94.60383    99.09217    96.848
16.332  94.60834    99.08737    96.84786
16.342  94.61315    99.08228    96.84771
16.352  94.61776    99.0774 96.84758
16.362  94.62243    99.07249    96.84746
16.372  94.62714    99.06754    96.84734
16.382  94.63191    99.06256    96.84723
16.392  94.63672    99.05753    96.84712
16.402  94.64158    99.05247    96.84702
16.412  94.64649    99.04737    96.84693
16.422  94.65145    99.04224    96.84684
16.432  94.65646    99.03707    96.84676
16.442  94.66178    99.03158    96.84668
16.452  94.66688    99.02634    96.84661
16.462  94.67203    99.02106    96.84655
16.472  94.67723    99.01574    96.84649
16.482  94.68248    99.01039    96.84643
16.492  94.68805    99.00472    96.84638
16.502  94.6934 98.99929    96.84634
16.512  94.69879    98.99383    96.84631
16.522  94.70422    98.98834    96.84628
16.532  94.70999    98.98252    96.84625
16.542  94.71552    98.97695    96.84624
16.552  94.72109    98.97136    96.84622
16.562  94.72701    98.96543    96.84622
16.572  94.73268    98.95976    96.84622
16.582  94.73839    98.95406    96.84622
16.592  94.74445    98.94802    96.84623
16.602  94.75025    98.94225    96.84625
16.612  94.7564 98.93614    96.84627
16.622  94.76229    98.93031    96.8463
16.632  94.76823    98.92444    96.84633
16.642  94.77452    98.91823    96.84637
16.652  94.78054    98.91229    96.84642
16.662  94.78693    98.90601    96.84647
16.671  94.7927 98.90035    96.84652
16.682  94.7996 98.89358    96.84659
16.693  94.80656    98.88677    96.84667
16.701  94.81182    98.88163    96.84673
16.712  94.81888    98.87474    96.84681
16.723  94.826  98.86781    96.8469
16.731  94.83138    98.86258    96.84698
16.742  94.8386 98.85557    96.84708
16.753  94.84587    98.84852    96.84719
16.761  94.85136    98.8432 96.84728
16.772  94.85874    98.83607    96.84741
16.783  94.86617    98.8289 96.84753
16.791  94.87177    98.8235 96.84764
16.802  94.8793 98.81625    96.84778
16.813  94.88688    98.80897    96.84792
16.821  94.8926 98.80347    96.84804
16.832  94.90028    98.79611    96.8482
16.843  94.90801    98.78871    96.84836
16.851  94.91384    98.78314    96.84849
16.862  94.92166    98.77566    96.84866
16.873  94.92954    98.76815    96.84885
16.881  94.93548    98.76249    96.84899
16.892  94.94345    98.7549 96.84918
16.900  94.94946    98.74919    96.84933
16.911  94.95752    98.74154    96.84953
16.922  94.96564    98.73384    96.84974
16.930  94.97175    98.72805    96.8499
16.941  94.97995    98.72029    96.85012
16.952  94.98821    98.71249    96.85035
16.960  94.99443    98.70661    96.85052
16.971  95.00277    98.69875    96.85076
16.982  95.01116    98.69084    96.851
16.990  95.01748    98.68489    96.85119
17.001  95.02596    98.67692    96.85144
17.012  95.03448    98.66891    96.8517
17.020  95.0409 98.66288    96.85189
17.031  95.04951    98.65481    96.85216
17.042  95.05816    98.6467 96.85243
17.050  95.06469    98.6406 96.85264
17.061  95.07342    98.63243    96.85293
17.072  95.0822 98.62423    96.85322
17.080  95.08882    98.61805    96.85344
17.091  95.09768    98.60978    96.85373
17.102  95.10659    98.60149    96.85404
17.110  95.1133 98.59524    96.85427
17.121  95.12228    98.58688    96.85458
17.132  95.13131    98.57849    96.8549
17.140  95.13811    98.57217    96.85514
17.151  95.14721    98.56372    96.85547
17.162  95.15636    98.55524    96.8558
17.170  95.16324    98.54886    96.85605
17.181  95.17246    98.54032    96.85639
17.192  95.18172    98.53175    96.85674
17.200  95.18869    98.5253 96.857
17.211  95.19802    98.51668    96.85735
17.222  95.20739    98.50802    96.85771
17.230  95.21444    98.50151    96.85798
17.241  95.22388    98.49281    96.85835
17.252  95.23336    98.48407    96.85872
17.260  95.24049    98.4775 96.859
17.271  95.25003    98.46872    96.85937
17.282  95.25961    98.45991    96.85976
17.290  95.26682    98.45328    96.86005
17.301  95.27646    98.44442    96.86044
17.312  95.28613    98.43553    96.86083
17.320  95.29341    98.42884    96.86113
17.331  95.30315    98.41991    96.86153
17.342  95.31292    98.41095    96.86193
17.350  95.32027    98.40421    96.86224
17.361  95.33009    98.39521    96.86265
17.372  95.33995    98.38618    96.86307
17.380  95.34737    98.37939    96.86338
17.391  95.35728    98.37032    96.8638
17.402  95.36722    98.36122    96.86422
17.410  95.3747 98.35439    96.86454
17.421  95.3847 98.34525    96.86498
17.432  95.39472    98.3361 96.86541
17.440  95.40226    98.32922    96.86574
17.451  95.41233    98.32002    96.86617
17.462  95.42243    98.31081    96.86662
17.470  95.43002    98.30388    96.86695
17.481  95.44016    98.29463    96.8674
17.492  95.45033    98.28536    96.86785
17.500  95.45797    98.2784 96.86819
17.511  95.46819    98.26909    96.86864
17.522  95.47842    98.25977    96.8691
17.533  95.48868    98.25043    96.86955
17.541  95.49638    98.24342    96.8699
17.552  95.50668    98.23405    96.87036
17.563  95.51699    98.22466    96.87083
17.571  95.52474    98.21762    96.87118
17.582  95.53509    98.2082 96.87165
17.593  95.54546    98.19878    96.87212
17.601  95.55324    98.1917 96.87247
17.612  95.56364    98.18225    96.87294
17.623  95.57406    98.17278    96.87342
17.631  95.58188    98.16567    96.87378
17.642  95.59232    98.15619    96.87425
17.653  95.60277    98.14669    96.87473
17.661  95.61063    98.13956    96.87509
17.672  95.6211 98.13004    96.87557
17.682  95.6316 98.12051    96.87605
17.691  95.63947    98.11336    96.87641
17.702  95.64998    98.10381    96.8769
17.712  95.6605 98.09426    96.87738
17.721  95.6684 98.08709    96.87774
17.731  95.67893    98.07752    96.87823
17.742  95.68948    98.06795    96.87871
17.751  95.69739    98.06076    96.87908
17.761  95.70795    98.05118    96.87956
17.772  95.71851    98.04159    96.88005
17.780  95.72643    98.03439    96.88041
17.791  95.737  98.02479    96.88089
17.802  95.74757    98.01519    96.88138
17.810  95.7555 98.00798    96.88174
17.821  95.76607    97.99838    96.88222
17.832  95.77665    97.98877    96.88271
17.840  95.78458    97.98156    96.88307
17.851  95.79515    97.97195    96.88355
17.862  95.80573    97.96233    96.88403
17.870  95.81365    97.95512    96.88439
17.881  95.82422    97.94551    96.88487
17.892  95.83478    97.9359 96.88534
17.900  95.8427 97.9287 96.8857
17.911  95.85325    97.91909    96.88617
17.922  95.8638 97.90949    96.88665
17.930  95.87171    97.90229    96.887
17.941  95.88224    97.8927 96.88747
17.952  95.89276    97.88311    96.88793
17.960  95.90064    97.87592    96.88828
17.971  95.91115    97.86634    96.88874
17.982  95.92164    97.85677    96.8892
17.990  95.9295 97.8496 96.88955
18.001  95.93996    97.84004    96.89
18.012  95.95041    97.83049    96.89045
18.020  95.95824    97.82333    96.89079
18.031  95.96866    97.8138 96.89123
18.042  95.97907    97.80428    96.89168
18.050  95.98686    97.79715    96.89201
18.061  95.99723    97.78765    96.89244
18.072  96.00758    97.77817    96.89288
18.082  96.01791    97.7687 96.8933
18.091  96.02564    97.7616 96.89362
18.101  96.03593    97.75216    96.89404
18.112  96.04619    97.74273    96.89446
18.120  96.05387    97.73567    96.89477
18.131  96.06409    97.72627    96.89518
18.142  96.07428    97.71688    96.89558
18.150  96.0819 97.70986    96.89588
18.161  96.09204    97.70051    96.89628
18.172  96.10215    97.69118    96.89667
18.180  96.10971    97.6842 96.89695
18.191  96.11976    97.67491    96.89733
18.202  96.12977    97.66564    96.89771
18.210  96.13726    97.6587 96.89798
18.221  96.14722    97.64947    96.89835
18.232  96.15713    97.64027    96.8987
18.240  96.16455    97.63339    96.89897
18.251  96.1744 97.62423    96.89931
18.262  96.1842 97.6151 96.89965
18.270  96.19153    97.60827    96.8999
18.281  96.20127    97.59918    96.90023
18.292  96.21096    97.59013    96.90054
18.300  96.2182 97.58336    96.90078
18.311  96.22781    97.57436    96.90108
18.322  96.23737    97.56539    96.90138
18.330  96.24451    97.55869    96.9016
18.341  96.25399    97.54978    96.90188
18.351  96.26342    97.5409 96.90216
18.360  96.27045    97.53427    96.90236
18.370  96.27979    97.52545    96.90262
18.381  96.28907    97.51667    96.90287
18.392  96.29829    97.50793    96.90311
18.400  96.30518    97.5014 96.90329
18.411  96.3143 97.49273    96.90351
18.422  96.32337    97.48409    96.90373
18.430  96.33013    97.47764    96.90389
18.441  96.33909    97.46908    96.90408
18.452  96.34798    97.46056    96.90427
18.460  96.35461    97.4542 96.90441
18.471  96.3634 97.44576    96.90458
18.482  96.37211    97.43736    96.90474
18.490  96.37861    97.43109    96.90485
18.501  96.3872 97.42277    96.90499
18.512  96.39573    97.4145 96.90512
18.520  96.40208    97.40833    96.9052
18.531  96.41048    97.40015    96.90531
18.542  96.4188 97.39201    96.90541
18.550  96.42499    97.38595    96.90547
18.561  96.43319    97.3779 96.90555
18.571  96.4413 97.36991    96.90561
18.580  96.44733    97.36396    96.90564
18.590  96.4553 97.35606    96.90568
18.601  96.46319    97.34822    96.90571
18.612  96.471  97.34044    96.90572
18.620  96.4768 97.33464    96.90572
18.631  96.48446    97.32696    96.90571
18.642  96.49202    97.31934    96.90568
18.650  96.49764    97.31366    96.90565
18.661  96.50505    97.30615    96.9056
18.672  96.51237    97.2987 96.90554
18.680  96.5178 97.29315    96.90548
18.691  96.52495    97.28581    96.90538
18.702  96.53201    97.27854    96.90527
18.710  96.53724    97.27313    96.90518
18.721  96.54412    97.26597    96.90505
18.732  96.5509 97.25888    96.90489
18.740  96.55592    97.25361    96.90477
18.751  96.56253    97.24665    96.90459
18.761  96.56903    97.23975    96.90439
18.770  96.57383    97.23463    96.90423
18.780  96.58014    97.22786    96.904
18.791  96.58634    97.22117    96.90376
18.799  96.59092    97.2162 96.90356
18.810  96.59692    97.20964    96.90328
18.821  96.60281    97.20316    96.90299
18.832  96.60859    97.19676    96.90267
18.840  96.61284    97.19201    96.90243
18.851  96.61841    97.18575    96.90208
18.862  96.62385    97.17957    96.90171
18.870  96.62786    97.17499    96.90142
18.881  96.63309    97.16896    96.90102
18.892  96.6382 97.16301    96.9006
18.900  96.64194    97.1586 96.90027
18.911  96.64682    97.15281    96.89982
18.921  96.65158    97.1471 96.89934
18.930  96.65505    97.14288    96.89897
18.940  96.65958    97.13733    96.89845
18.951  96.66396    97.13187    96.89791
18.959  96.66716    97.12784    96.8975
18.970  96.6713 97.12254    96.89692
18.981  96.67531    97.11734    96.89633
18.989  96.67822    97.11351    96.89586
19.000  96.68197    97.10848    96.89522
19.011  96.68558    97.10355    96.89456
19.022  96.68905    97.09871    96.89388
19.030  96.69155    97.09516    96.89335
19.041  96.69475    97.0905 96.89262
19.052  96.6978 97.08595    96.89187
19.060  96.69998    97.08261    96.8913
19.071  96.70276    97.07824    96.8905
19.081  96.70538    97.07398    96.88968
19.090  96.70724    97.07086    96.88905
19.100  96.70958    97.06679    96.88819
19.111  96.71176    97.06283    96.8873
19.119  96.71329    97.05994    96.88661
19.130  96.71517    97.05618    96.88568
19.141  96.71689    97.05253    96.88471
19.149  96.71807    97.04987    96.88397
19.160  96.7195 97.04642    96.88296
19.171  96.72074    97.0431 96.88192
19.182  96.72182    97.03989    96.88085
19.190  96.7225 97.03756    96.88003
19.201  96.72326    97.03457    96.87892
19.211  96.72384    97.0317 96.87777
19.220  96.72416    97.02962    96.87689
19.230  96.72441    97.02697    96.87569
19.241  96.72448    97.02444    96.87446
19.249  96.72441    97.02263    96.87352
19.260  96.72415    97.02033    96.87224
19.271  96.7237 97.01816    96.87093
19.279  96.72323    97.01662    96.86992
19.290  96.72243    97.01468    96.86855
19.301  96.72144    97.01287    96.86715
19.312  96.72024    97.0112 96.86572
19.320  96.71921    97.01004    96.86463
19.331  96.71766    97.00862    96.86314
19.341  96.7159 97.00733    96.86162
19.350  96.71445    97.00646    96.86045
19.360  96.71232    97.00542    96.85887
19.371  96.70998    97.00453    96.85725
19.379  96.70809    97.00395    96.85602
19.390  96.70537    97.00331    96.85434
19.401  96.70244    97.00283    96.85263
19.409  96.70009    97.00256    96.85132
19.420  96.69677    97.00233    96.84955
19.431  96.69322    97.00226    96.84774
19.439  96.69041    97.0023 96.84636
19.450  96.68647    97.0025 96.84448
19.461  96.68229    97.00285    96.84257
19.471  96.67788    97.00336    96.84062
19.480  96.67442    97.00385    96.83913
19.490  96.66959    97.00464    96.83712
19.501  96.66453    97.0056 96.83506
19.509  96.66057    97.00642    96.83349
19.520  96.65508    97.00766    96.83137
19.531  96.64934    97.00907    96.82921
19.539  96.64487    97.01024    96.82756
19.550  96.6387 97.01195    96.82532
19.561  96.63227    97.01382    96.82305
19.569  96.62728    97.01534    96.82131
19.580  96.6204 97.01752    96.81896
19.591  96.61327    97.01988    96.81657
19.601  96.60587    97.02241    96.81414
19.610  96.60014    97.02443    96.81229
19.620  96.59228    97.02728    96.80978
19.631  96.58415    97.03031    96.80723
19.639  96.57787    97.0327 96.80529
19.650  96.56926    97.03605    96.80266
19.661  96.56037    97.03959    96.79998
19.669  96.55353    97.04237    96.79795
19.680  96.54415    97.04624    96.7952
19.691  96.53449    97.0503 96.7924
19.701  96.52455    97.05455    96.78955
19.710  96.5169 97.05787    96.78739
19.720  96.50646    97.06247    96.78446
19.731  96.49571    97.06726    96.78149
19.739  96.48746    97.07098    96.77922
19.750  96.4762 97.07613    96.77616
19.761  96.46464    97.08147    96.77306
19.769  96.45577    97.08562    96.77069
19.780  96.44368    97.09132    96.7675
19.791  96.43128    97.09723    96.76426
19.799  96.42178    97.1018 96.76179
19.810  96.40884    97.10808    96.75846
19.820  96.39558    97.11457    96.75507
19.831  96.382  97.12128    96.75164
19.839  96.37161    97.12645    96.74903
19.850  96.35748    97.13353    96.7455
19.861  96.34301    97.14083    96.74192
19.869  96.33195    97.14645    96.7392
19.880  96.31692    97.15415    96.73553
19.891  96.30155    97.16206    96.7318
19.899  96.2898 97.16814    96.72897
19.910  96.27384    97.17646    96.72515
19.921  96.25754    97.185  96.72127
19.931  96.2409 97.19377    96.71733
19.939  96.22819    97.2005 96.71435
19.950  96.21094    97.20968    96.71031
19.961  96.19334    97.2191 96.70622
19.969  96.17991    97.22632    96.70312
19.980  96.16169    97.23615    96.69892
19.991  96.14311    97.24623    96.69467
19.999  96.12894    97.25395    96.69144
