Wavelength (Âµm)    Reflectance, P-Pol. (%) Reflectance, S-Pol. (%) Reflectance, Unpol. (%)
0.350   5.356365204 6.149227142 5.752796173
0.351   5.358998299 7.374481678 6.366739989
0.352   5.607214451 8.028581619 6.817898035
0.353   6.080406666 9.117690086 7.599048376
0.354   6.833250999 9.992224693 8.412737846
0.355   6.994289875 11.63570023 9.314995053
0.356   7.127397537 12.00106525 9.564231394
0.357   7.712846279 13.43643856 10.57464242
0.358   7.932781219 14.8163929  11.37458706
0.359   8.444232941 15.91440105 12.179317
0.36    8.72673893  17.38298035 13.05485964
0.361   9.577638626 18.28249168 13.93006515
0.362   9.717563629 19.55180931 14.63468647
0.363   10.1618576  20.90770721 15.53478241
0.364   10.7053566  22.19122505 16.44829083
0.365   11.25603867 23.13104057 17.19353962
0.366   11.73402119 24.31480026 18.02441073
0.367   12.05831623 25.33084106 18.69457865
0.368   12.65310955 26.51076698 19.58193827
0.369   13.20067787 27.84290314 20.52179051
0.37    13.5589304  28.85214043 21.20553542
0.371   14.1423378  30.33743858 22.23988819
0.372   14.70393085 31.1271553  22.91554308
0.373   15.17383003 32.40262985 23.78822994
0.374   15.64495754 33.30449295 24.47472525
0.375   16.20771027 34.49983978 25.35377503
0.376   16.73650551 35.28395844 26.01023198
0.377   17.03194237 36.17987061 26.60590649
0.378   17.67942238 37.22939301 27.4544077
0.379   18.04054451 38.07803345 28.05928898
0.38    18.6358242  39.12798309 28.88190365
0.381   19.06929207 39.8777771  29.47353459
0.382   19.51907158 40.64616394 30.08261776
0.383   19.87553596 41.27376556 30.57465076
0.384   20.39488792 41.90964508 31.1522665
0.385   20.77345467 42.79565811 31.78455639
0.386   21.17881775 43.54534149 32.36207962
0.387   21.63566399 44.10865784 32.87216092
0.388   22.0688839  44.89862442 33.48375416
0.389   22.38459206 45.34033585 33.86246396
0.39    22.8915863  45.91101456 34.40130043
0.391   23.16041756 46.42619324 34.7933054
0.392   23.53164482 46.98365784 35.25765133
0.393   23.87090874 47.55872726 35.714818
0.394   24.22449493 47.96143341 36.09296417
0.395   24.53925896 48.4536171  36.49643803
0.396   24.85442734 48.9871788  36.92080307
0.397   25.19628906 49.39408112 37.29518509
0.398   25.48934746 50.06660843 37.77797795
0.399   25.83713913 50.25757599 38.04735756
0.4 26.09412384 50.72951889 38.41182137
0.401   26.32626534 50.87352371 38.59989453
0.402   26.60206223 51.40468979 39.00337601
0.403   26.86328316 51.75865173 39.31096745
0.404   27.03462029 51.95956421 39.49709225
0.405   27.29939461 52.25971985 39.77955723
0.406   27.55220604 52.49039459 40.02130032
0.407   27.72629166 52.89709091 40.31169129
0.408   27.94242287 53.03672409 40.48957348
0.409   28.15085602 53.1835556  40.66720581
0.41    28.32975388 53.47360992 40.9016819
0.411   28.52745628 53.67777252 41.1026144
0.412   28.65023994 53.83069611 41.24046803
0.413   28.80424309 54.04647446 41.42535878
0.414   28.97437859 54.19506836 41.58472348
0.415   29.1115551  54.42399979 41.76777745
0.416   29.23599243 54.42987823 41.83293533
0.417   29.32067871 54.61260223 41.96664047
0.418   29.49577522 54.69993973 42.09785748
0.419   29.55862808 54.74377823 42.15120316
0.42    29.66509819 54.90874481 42.2869215
0.421   29.77786446 55.007267   42.39256573
0.422   29.83524513 55.09421158 42.46472836
0.423   29.94216156 55.05288315 42.49752236
0.424   29.98790359 55.1442337  42.56606865
0.425   30.06180573 55.164505   42.61315537
0.426   30.11515808 55.20690536 42.66103172
0.427   30.18656158 55.3035965  42.74507904
0.428   30.23577309 55.20074844 42.71826077
0.429   30.23078156 55.23822784 42.7345047
0.43    30.28761101 55.25383377 42.77072239
0.431   30.30927467 55.24435043 42.77681255
0.432   30.34716225 55.1950531  42.77110768
0.433   30.35929871 55.21646118 42.78787995
0.434   30.37482452 55.16678619 42.77080536
0.435   30.350811   55.08960342 42.72020721
0.436   30.36096191 54.9968071  42.67888451
0.437   30.3135128  54.97401428 42.64376354
0.438   30.32828331 54.91501617 42.62164974
0.439   30.30682564 54.815979   42.56140232
0.44    30.27657509 54.68756485 42.48206997
0.441   30.23944855 54.59969711 42.41957283
0.442   30.20207596 54.55437851 42.37822724
0.443   30.1774826  54.43312454 42.30530357
0.444   30.12092972 54.33933258 42.23013115
0.445   30.06700516 54.18031311 42.12365914
0.446   30.02032089 54.06783676 42.04407883
0.447   29.97756577 53.93909073 41.95832825
0.448   29.90139771 53.81924057 41.86031914
0.449   29.84617424 53.60800171 41.72708798
0.45    29.79673195 53.50098038 41.64885617
0.451   29.73388672 53.38999176 41.56193924
0.452   29.66082764 53.23833847 41.44958306
0.453   29.58804131 53.08965302 41.33884717
0.454   29.51479912 52.97154617 41.24317265
0.455   29.48096466 52.77418518 41.12757492
0.456   29.3799839  52.62864304 41.00431347
0.457   29.31661224 52.46002197 40.88831711
0.458   29.25625801 52.27687836 40.76656819
0.459   29.18470001 52.14218903 40.66344452
0.46    29.11810303 51.95788574 40.53799439
0.461   29.04750061 51.76871872 40.40810967
0.462   28.98822403 51.63611603 40.31217003
0.463   28.92044258 51.50905228 40.21474743
0.464   28.867033   51.33215714 40.09959507
0.465   28.81992531 51.16831207 39.99411869
0.466   28.77631187 51.03226852 39.9042902
0.467   28.72920418 50.88778305 39.80849362
0.468   28.70373344 50.74372864 39.72373104
0.469   28.65312958 50.60867691 39.63090325
0.47    28.64753532 50.46412277 39.55582905
0.471   28.61840439 50.31768799 39.46804619
0.472   28.62111664 50.2324028  39.42675972
0.473   28.63923264 50.11600113 39.37761689
0.474   28.63583565 50.03462601 39.33523083
0.475   28.68343544 49.92638397 39.30490971
0.476   28.71708298 49.8550148  39.28604889
0.477   28.76980209 49.82110977 39.29545593
0.478   28.83861923 49.76137543 39.29999733
0.479   28.95023727 49.72869492 39.3394661
0.48    29.04640961 49.71475601 39.38058281
0.481   29.18417168 49.71760559 39.45088864
0.482   29.33430099 49.7460556  39.5401783
0.483   29.5129776  49.807724   39.6603508
0.484   29.72923851 49.82819366 39.77871609
0.485   29.9384594  49.91104889 39.92475415
0.486   30.19388962 49.98449326 40.08919144
0.487   30.47341919 50.12200928 40.29771424
0.488   30.79643822 50.23604202 40.51624012
0.489   31.11937332 50.42807388 40.7737236
0.49    31.48025894 50.5929718  41.03661537
0.491   31.87520218 50.7647438  41.31997299
0.492   32.29307556 50.99758911 41.64533234
0.493   32.73903275 51.23955154 41.98929215
0.494   33.19774246 51.44481659 42.32127953
0.495   33.6882515  51.71873093 42.70349122
0.496   34.19804001 51.95155716 43.07479859
0.497   34.72050095 52.19325256 43.45687676
0.498   35.26953506 52.45738602 43.86346054
0.499   35.83929443 52.73743439 44.28836441
0.5 36.40286255 52.98141098 44.69213677
0.501   36.97768402 53.23785019 45.10776711
0.502   37.56512833 53.46611786 45.5156231
0.503   38.1524353  53.71734619 45.93489075
0.504   38.73753357 53.90704346 46.32228852
0.505   39.32732391 54.1916008  46.75946236
0.506   39.89576721 54.30986786 47.10281754
0.507   40.48921585 54.53096771 47.51009178
0.508   41.05841064 54.6642189  47.86131477
0.509   41.61798859 54.83524704 48.22661782
0.51    42.15597916 54.95463562 48.55530739
0.511   42.69454193 55.08884811 48.89169502
0.512   43.23788452 55.14734268 49.1926136
0.513   43.73192978 55.20026779 49.46609879
0.514   44.2426796  55.24460602 49.74364281
0.515   44.72908783 55.29309082 50.01108933
0.516   45.18788147 55.29607391 50.24197769
0.517   45.652771   55.27929688 50.46603394
0.518   46.10702515 55.25109863 50.67906189
0.519   46.52807999 55.18338013 50.85573006
0.52    46.95717239 55.13589859 51.04653549
0.521   47.36611176 55.07597351 51.22104264
0.522   47.77233887 54.97311401 51.37272644
0.523   48.16574478 54.84143448 51.50358963
0.524   48.55273056 54.72736359 51.64004708
0.525   48.92959595 54.61962891 51.77461243
0.526   49.30125427 54.44080734 51.87103081
0.527   49.65499496 54.30278015 51.97888756
0.528   50.01221848 54.10483551 52.058527
0.529   50.37384033 53.92733765 52.15058899
0.53    50.70486832 53.73114777 52.21800805
0.531   51.03903961 53.49663544 52.26783753
0.532   51.38384247 53.29860306 52.34122277
0.533   51.71916962 53.07772827 52.39844895
0.534   52.05139923 52.84677124 52.44908524
0.535   52.35001373 52.61898804 52.48450089
0.536   52.67298126 52.41269302 52.54283714
0.537   53.01303101 52.15070343 52.58186722
0.538   53.32732391 51.89831924 52.61282158
0.539   53.64490891 51.63407898 52.63949395
0.54    53.9612999  51.38976669 52.6755333
0.541   54.28385925 51.1640892  52.72397423
0.542   54.58877182 50.86473846 52.72675514
0.543   54.91661835 50.63853455 52.77757645
0.544   55.24175644 50.38570023 52.81372834
0.545   55.55466843 50.13546753 52.84506798
0.546   55.86037445 49.90428543 52.88232994
0.547   56.18277359 49.67588806 52.92933083
0.548   56.51274872 49.43842697 52.97558785
0.549   56.84080887 49.23209381 53.03645134
0.55    57.15575409 49.01361084 53.08468247
0.551   57.48451996 48.82750702 53.15601349
0.552   57.80500793 48.61250687 53.2087574
0.553   58.1449585  48.45328903 53.29912377
0.554   58.46188736 48.30786896 53.38487816
0.555   58.77461243 48.17461777 53.4746151
0.556   59.10567474 48.04319    53.57443237
0.557   59.41991043 47.96683502 53.69337273
0.558   59.76873779 47.88803864 53.82838822
0.559   60.0991745  47.84199142 53.97058296
0.56    60.441185   47.83036041 54.13577271
0.561   60.77108383 47.83483887 54.30296135
0.562   61.1108017  47.86334229 54.487072
0.563   61.44397736 47.93229294 54.68813515
0.564   61.77277374 48.01683044 54.89480209
0.565   62.10612106 48.15720749 55.13166428
0.566   62.45533371 48.34012222 55.39772797
0.567   62.80099869 48.52641678 55.66370774
0.568   63.14312744 48.74268723 55.94290734
0.569   63.4932518  49.04403305 56.26864243
0.57    63.84376907 49.28574753 56.5647583
0.571   64.18580627 49.70094299 56.94337463
0.572   64.55613708 50.04359055 57.29986382
0.573   64.89924622 50.48503876 57.69214249
0.574   65.23831177 50.92170334 58.08000756
0.575   65.60198975 51.3972168  58.49960328
0.576   65.93647003 51.9452095  58.94083977
0.577   66.29232025 52.45864868 59.37548447
0.578   66.64620972 53.03397369 59.84009171
0.579   66.99680328 53.63954163 60.31817246
0.58    67.35791016 54.28076553 60.81933785
0.581   67.69908142 54.93014526 61.31461334
0.582   68.05172729 55.61244583 61.83208656
0.583   68.40679169 56.32328415 62.36503792
0.584   68.75733185 57.0161171  62.88672448
0.585   69.12507629 57.77529907 63.45018768
0.586   69.45641327 58.54990387 64.00315857
0.587   69.83416748 59.30226898 64.56821823
0.588   70.18061066 60.10050964 65.14056015
0.589   70.51447296 60.88329697 65.69888497
0.59    70.86932373 61.67961502 66.27446938
0.591   71.22097778 62.48304367 66.85201073
0.592   71.55186462 63.30614853 67.42900658
0.593   71.89706421 64.11335754 68.00521088
0.594   72.23997498 64.93603516 68.58800507
0.595   72.58116913 65.71140289 69.14628601
0.596   72.9361496  66.55775452 69.74695206
0.597   73.25666809 67.31830597 70.28748703
0.598   73.60565186 68.1084137  70.85703278
0.599   73.93132019 68.8812561  71.40628815
0.6 74.26635742 69.70314026 71.98474884
0.601   74.59791565 70.43899536 72.51845551
0.602   74.91513824 71.16962433 73.04238129
0.603   75.23392487 71.93577576 73.58485032
0.604   75.55240631 72.65013123 74.10126877
0.605   75.88074493 73.35391998 74.61733246
0.606   76.18409729 74.07467651 75.1293869
0.607   76.49810791 74.76573181 75.63191986
0.608   76.81268311 75.43371582 76.12319947
0.609   77.11988831 76.11522675 76.61755753
0.61    77.43477631 76.72161865 77.07819748
0.611   77.72227478 77.37024689 77.54626084
0.612   78.04673004 77.95905304 78.00289154
0.613   78.3323822  78.57384491 78.45311356
0.614   78.64107513 79.14044189 78.89075851
0.615   78.91969299 79.70639801 79.3130455
0.616   79.21620941 80.28331757 79.74976349
0.617   79.52095795 80.79966736 80.16031266
0.618   79.80101013 81.29360962 80.54730988
0.619   80.07698822 81.79734039 80.93716431
0.62    80.38035583 82.31033325 81.34534454
0.621   80.651474   82.76068115 81.70607758
0.622   80.92861938 83.20384216 82.06623077
0.623   81.2015686  83.66466522 82.43311691
0.624   81.46875763 84.08973694 82.77924729
0.625   81.74058533 84.49784088 83.11921311
0.626   81.98034668 84.88409424 83.43222046
0.627   82.26758575 85.28668213 83.77713394
0.628   82.51720428 85.69953156 84.10836792
0.629   82.76582336 86.01748657 84.39165497
0.63    83.0144577  86.37772369 84.6960907
0.631   83.26065826 86.72827148 84.99446487
0.632   83.51581573 87.09360504 85.30471039
0.633   83.7363205  87.37261963 85.55447007
0.634   83.9812851  87.69307709 85.8371811
0.635   84.21524048 88.02490234 86.12007141
0.636   84.45343018 88.29666901 86.3750496
0.637   84.66917419 88.58677673 86.62797546
0.638   84.89487457 88.87004852 86.88246155
0.639   85.09999847 89.12545013 87.1127243
0.64    85.33196259 89.37529755 87.35363007
0.641   85.53858185 89.6453476  87.59196473
0.642   85.7281189  89.84745789 87.7877884
0.643   85.95068359 90.13335419 88.04201889
0.644   86.13489532 90.3515625  88.24322891
0.645   86.34259796 90.60951233 88.47605515
0.646   86.53768921 90.77532196 88.65650559
0.647   86.72590637 90.99101257 88.85845947
0.648   86.91278839 91.20587921 89.0593338
0.649   87.09707642 91.40384674 89.25046158
0.65    87.2918396  91.57144928 89.43164444
0.651   87.4358902  91.80597687 89.62093354
0.652   87.6267395  91.96051025 89.79362488
0.653   87.78088379 92.13513947 89.95801163
0.654   87.96696472 92.27954865 90.12325669
0.655   88.14156342 92.44056702 90.29106522
0.656   88.28529358 92.62359619 90.45444489
0.657   88.46733856 92.75391388 90.61062622
0.658   88.60608673 92.92240143 90.76424408
0.659   88.76104736 93.07361603 90.9173317
0.66    88.92626953 93.20766449 91.06696701
0.661   89.06243896 93.36016083 91.2112999
0.662   89.21929932 93.50685883 91.36307908
0.663   89.34927368 93.56330872 91.4562912
0.664   89.50188446 93.7682724  91.63507843
0.665   89.63624573 93.84864044 91.74244309
0.666   89.76763153 93.99004364 91.87883759
0.667   89.89710236 94.10553741 92.00131989
0.668   90.03010559 94.21952057 92.12481308
0.669   90.14861298 94.32450867 92.23656083
0.67    90.27456665 94.43371582 92.35414124
0.671   90.38779449 94.55810547 92.47294998
0.672   90.5349884  94.58692932 92.56095886
0.673   90.62875366 94.71595764 92.67235565
0.674   90.74206543 94.79858398 92.77032471
0.675   90.8699646  94.89476776 92.88236618
0.676   90.96768188 95.03851318 93.00309753
0.677   91.07803345 95.0854187  93.08172608
0.678   91.17835999 95.19457245 93.18646622
0.679   91.28573608 95.2984314  93.29208374
0.68    91.38822937 95.32649231 93.35736084
0.681   91.48288727 95.43826294 93.46057511
0.682   91.58146667 95.52898407 93.55522537
0.683   91.68383789 95.59072113 93.63727951
0.684   91.76068115 95.63566589 93.69817352
0.685   91.85131836 95.70617676 93.77874756
0.686   91.92922974 95.76858521 93.84890748
0.687   92.0302124  95.81359863 93.92190552
0.688   92.11048126 95.88387299 93.99717713
0.689   92.1805954  95.9463501  94.06347275
0.69    92.28496552 96.00349426 94.14422989
0.691   92.35756683 96.0459671  94.20176697
0.692   92.41551971 96.13327026 94.27439499
0.693   92.50228119 96.12438202 94.31333161
0.694   92.5817337  96.21824646 94.39999008
0.695   92.6455307  96.26289368 94.45421219
0.696   92.70635223 96.30201721 94.50418472
0.697   92.77980804 96.38148499 94.58064652
0.698   92.85424042 96.3874054  94.62082291
0.699   92.91884613 96.4196167  94.66923142
0.7 92.9848175  96.49133301 94.73807526
0.701   93.05814362 96.53214264 94.79514313
0.702   93.10971069 96.5920105  94.8508606
0.703   93.15824127 96.66701508 94.91262818
0.704   93.23443604 96.67984009 94.95713807
0.705   93.28257751 96.73599243 95.00928497
0.706   93.35212708 96.73816681 95.04514695
0.707   93.40232849 96.77155304 95.08694077
0.708   93.45145416 96.84198761 95.14672089
0.709   93.51241302 96.83846283 95.17543793
0.71    93.55786896 96.88768768 95.22277832
0.711   93.60488892 96.90982819 95.25735856
0.712   93.66355896 96.94324493 95.30340195
0.713   93.70806122 96.95192719 95.32999421
0.714   93.75798035 97.02422333 95.39110184
0.715   93.8115387  97.06110382 95.43632126
0.716   93.86190033 97.07556152 95.46873093
0.717   93.9111557  97.09306335 95.50210953
0.718   93.94972992 97.11223602 95.53098297
0.719   93.98907471 97.17234039 95.58070755
0.72    94.12275696 97.10760498 95.61518097
0.721   94.09230042 97.1418457  95.61707306
0.722   94.25800323 97.16435242 95.71117783
0.723   94.23049164 97.19351196 95.7120018
0.724   94.27777863 97.19812775 95.73795319
0.725   94.23470306 97.25170898 95.74320602
0.726   94.34162903 97.25582123 95.79872513
0.727   94.33643341 97.27824402 95.80733872
0.728   94.41599274 97.32424927 95.87012101
0.729   94.45393372 97.32009125 95.88701249
0.73    94.47648621 97.36019897 95.91834259
0.731   94.50981903 97.36338806 95.93660355
0.732   94.58344269 97.38476563 95.98410416
0.733   94.59588623 97.4185257  96.00720597
0.734   94.64050293 97.43165588 96.03607941
0.735   94.61341095 97.46144104 96.037426
0.736   94.68043518 97.47426605 96.07735062
0.737   94.76574707 97.48252869 96.12413788
0.738   94.73535156 97.50945282 96.12240219
0.739   94.80388641 97.516922   96.16040421
0.74    94.83039856 97.54923248 96.18981552
0.741   94.882164   97.54955292 96.21585846
0.742   94.84103394 97.58978271 96.21540833
0.743   94.96178436 97.59618378 96.27898407
0.744   94.95096588 97.60995483 96.28046036
0.745   94.9262085  97.6293869  96.2777977
0.746   94.99019623 97.63792419 96.31406021
0.747   95.00747681 97.64975739 96.3286171
0.748   95.07200623 97.6904068  96.38120652
0.749   95.02079773 97.69011688 96.35545731
0.75    95.12217712 97.70183563 96.41200638
0.751   95.14667511 97.70326233 96.42496872
0.752   95.13157654 97.7375412  96.43455887
0.753   95.21533203 97.76399994 96.48966599
0.754   95.22990417 97.76193237 96.49591827
0.755   95.24376678 97.78318787 96.51347733
0.756   95.29039764 97.78364563 96.53702164
0.757   95.25741577 97.81356812 96.53549195
0.758   95.32898712 97.81799316 96.57349014
0.759   95.32057953 97.82321167 96.5718956
0.76    95.38119507 97.8368454  96.60902024
0.761   95.366745   97.86497498 96.61585999
0.762   95.42880249 97.86978149 96.64929199
0.763   95.46591949 97.86975861 96.66783905
0.764   95.48493195 97.88813019 96.68653107
0.765   95.4386673  97.89910889 96.6688881
0.766   95.52657318 97.89230347 96.70943833
0.767   95.533638   97.90340424 96.71852112
0.768   95.52310181 97.92720795 96.72515488
0.769   95.59709167 97.95449829 96.77579498
0.77    95.54859924 97.95534515 96.7519722
0.771   95.57779694 97.97301483 96.77540589
0.772   95.6319809  97.97923279 96.80560685
0.773   95.64264679 97.99398804 96.81831742
0.774   95.66514587 98.00041199 96.83277893
0.775   95.67007446 98.01273346 96.84140396
0.776   95.68994904 98.02345276 96.8567009
0.777   95.75141144 98.0259552  96.88868332
0.778   95.7752533  98.01770782 96.89648056
0.779   95.74933624 98.05308533 96.90121079
0.78    95.82293701 98.05544281 96.93918991
0.781   95.7909317  98.0734024  96.93216705
0.782   95.79855347 98.08581543 96.94218445
0.783   95.80680084 98.08403015 96.9454155
0.784   95.8046875  98.08634186 96.94551468
0.785   95.80892944 98.08443451 96.94668198
0.786   95.83317566 98.11037445 96.97177506
0.787   95.90098572 98.11930084 97.01014328
0.788   95.89466095 98.11898804 97.0068245
0.789   95.9058075  98.14656067 97.02618409
0.79    95.91909027 98.1346817  97.02688599
0.791   95.95455933 98.14043427 97.0474968
0.792   95.97741699 98.14723969 97.06232834
0.793   95.95404053 98.14336395 97.04870224
0.794   95.99435425 98.17416382 97.08425904
0.795   96.03614807 98.16568756 97.10091782
0.796   96.04197693 98.17710876 97.10954285
0.797   96.04221344 98.18585205 97.11403275
0.798   96.06951904 98.19718933 97.13335419
0.799   96.04891205 98.19043732 97.11967469
0.8 96.0508194  98.21315765 97.13198853
0.801   96.07855988 98.19754028 97.13805008
0.802   96.10314941 98.21791077 97.16053009
0.803   96.09889221 98.21914673 97.15901947
0.804   96.13230133 98.22637939 97.17934036
0.805   96.13243866 98.23839569 97.18541718
0.806   96.14045715 98.23013306 97.18529511
0.807   96.15544128 98.23606873 97.19575501
0.808   96.16725159 98.23098755 97.19911957
0.809   96.17138672 98.26056671 97.21597672
0.81    96.20289612 98.26265717 97.23277665
0.811   96.23508453 98.26239014 97.24873734
0.812   96.20066071 98.28651428 97.2435875
0.813   96.2617569  98.26858521 97.26517106
0.814   96.27474976 98.2718811  97.27331543
0.815   96.25205231 98.28807831 97.27006531
0.816   96.26222992 98.31188965 97.28705979
0.817   96.31177521 98.29302979 97.3024025
0.818   96.31219482 98.30331421 97.30775452
0.819   96.32514191 98.30407715 97.31460953
0.82    96.31548309 98.31646729 97.31597519
0.821   96.33243561 98.31026459 97.3213501
0.822   96.32266998 98.31195068 97.31731033
0.823   96.35430908 98.33855438 97.34643173
0.824   96.36706543 98.32904053 97.34805298
0.825   96.36011505 98.33097839 97.34554672
0.826   96.36651611 98.32743073 97.34697342
0.827   96.37934875 98.33611298 97.35773087
0.828   96.42227173 98.34112549 97.38169861
0.829   96.42987061 98.35092926 97.39039994
0.83    96.43917847 98.35237885 97.39577866
0.831   96.42931366 98.35195923 97.39063645
0.832   96.44304657 98.36352539 97.40328598
0.833   96.44358063 98.37083435 97.40720749
0.834   96.45780945 98.36321259 97.41051102
0.835   96.49219513 98.37271881 97.43245697
0.836   96.44736481 98.36658478 97.4069748
0.837   96.47771454 98.37432861 97.42602158
0.838   96.50902557 98.3939209  97.45147324
0.839   96.52481079 98.38078308 97.45279694
0.84    96.53561401 98.38388824 97.45975113
0.841   96.54251862 98.38805389 97.46528626
0.842   96.52087402 98.39130402 97.45608902
0.843   96.52511597 98.41244507 97.46878052
0.844   96.53379059 98.41444397 97.47411728
0.845   96.55080414 98.4092865  97.48004532
0.846   96.53222656 98.40181732 97.46702194
0.847   96.58685303 98.41139984 97.49912644
0.848   96.56144714 98.42009735 97.49077225
0.849   96.59182739 98.41017914 97.50100327
0.85    96.58757019 98.4361496  97.5118599
0.851   96.60306549 98.42735291 97.5152092
0.852   96.58590698 98.43169403 97.50880051
0.853   96.60390472 98.43710327 97.520504
0.854   96.64284515 98.44767761 97.54526138
0.855   96.62405396 98.43334198 97.52869797
0.856   96.62375641 98.44696045 97.53535843
0.857   96.64396667 98.43956757 97.54176712
0.858   96.63121796 98.4458313  97.53852463
0.859   96.64234924 98.46767426 97.55501175
0.86    96.65727234 98.45102692 97.55414963
0.861   96.66388702 98.45859528 97.56124115
0.862   96.65697479 98.46220398 97.55958939
0.863   96.6842041  98.47341156 97.57880783
0.864   96.68686676 98.46225739 97.57456208
0.865   96.66815186 98.48009491 97.57412339
0.866   96.69203186 98.4748764  97.58345413
0.867   96.71535492 98.46954346 97.59244919
0.868   96.69933319 98.47013092 97.58473206
0.869   96.71422577 98.47447205 97.59434891
0.87    96.7381134  98.50424194 97.62117767
0.871   96.73442078 98.49891663 97.61666871
0.872   96.73262787 98.47175598 97.60219193
0.873   96.72288513 98.48469543 97.60379028
0.874   96.74452209 98.49781799 97.62117004
0.875   96.74229431 98.49098206 97.61663819
0.876   96.75079346 98.49389648 97.62234497
0.877   96.73590851 98.49028015 97.61309433
0.878   96.75247192 98.50679779 97.62963486
0.879   96.78247833 98.51187897 97.64717865
0.88    96.76650238 98.49768829 97.63209534
0.881   96.77883148 98.50267792 97.6407547
0.882   96.79125977 98.49620819 97.64373398
0.883   96.78229523 98.51483154 97.64856339
0.884   96.79201508 98.5011673  97.64659119
0.885   96.7917099  98.50977325 97.65074158
0.886   96.80098724 98.50219727 97.65159226
0.887   96.80718994 98.51693726 97.6620636
0.888   96.80244446 98.51459503 97.65851975
0.889   96.82678986 98.51213074 97.6694603
0.89    96.82016754 98.51252747 97.66634751
0.891   96.81226349 98.53492737 97.67359543
0.892   96.82732391 98.49593353 97.66162872
0.893   96.83527374 98.51222229 97.67374802
0.894   96.82733917 98.51482391 97.67108154
0.895   96.84659576 98.5226059  97.68460083
0.896   96.84645081 98.52779388 97.68712235
0.897   96.84024811 98.53338623 97.68681717
0.898   96.84906769 98.53619385 97.69263077
0.899   96.84492493 98.50971222 97.67731858
0.9 96.85627747 98.5504303  97.70335389
0.901   96.87107849 98.52291107 97.69699478
0.902   96.86342621 98.52255249 97.69298935
0.903   96.87689209 98.53623962 97.70656586
0.904   96.86286926 98.53977203 97.70132065
0.905   96.89729309 98.52506256 97.71117783
0.906   96.90524292 98.53544617 97.72034455
0.907   96.88488007 98.54098511 97.71293259
0.908   96.89873505 98.54351044 97.72112275
0.909   96.89232635 98.53101349 97.71166992
0.91    96.90058136 98.54446411 97.72252274
0.911   96.90090942 98.54372406 97.72231674
0.912   96.91162109 98.55047607 97.73104858
0.913   96.91049957 98.5579071  97.73420334
0.914   96.91191101 98.5475235  97.72971726
0.915   96.90431213 98.54756927 97.7259407
0.916   96.92047882 98.56239319 97.74143601
0.917   96.9233017  98.55321503 97.73825837
0.918   96.92809296 98.54425812 97.73617554
0.919   96.93565369 98.55097198 97.74331284
0.92    96.92385101 98.53679657 97.73032379
0.921   96.93471527 98.55909729 97.74690628
0.922   96.93157959 98.55656433 97.74407196
0.923   96.94540405 98.54216003 97.74378204
0.924   96.94662476 98.54560852 97.74611664
0.925   96.93125153 98.53833008 97.73479081
0.926   96.95625305 98.54168701 97.74897003
0.927   96.95494843 98.55008698 97.75251771
0.928   96.96035767 98.54211426 97.75123597
0.929   96.95027161 98.56800079 97.7591362
0.93    96.9720993  98.54154205 97.75682068
0.931   96.9705658  98.55233765 97.76145173
0.932   96.95705414 98.5592804  97.75816727
0.933   96.96547699 98.5663681  97.76592255
0.934   96.94787598 98.54956055 97.74871827
0.935   96.96152496 98.55097198 97.75624847
0.936   96.97111511 98.56480408 97.7679596
0.937   96.97251892 98.55947876 97.76599884
0.938   96.99713898 98.57400513 97.78557206
0.939   96.9624939  98.55530548 97.75889969
0.94    96.98990631 98.56685638 97.77838135
0.941   96.9829483  98.57878113 97.78086472
0.942   96.9886322  98.55133057 97.76998139
0.943   96.98007965 98.55358887 97.76683426
0.944   96.99082947 98.56728363 97.77905655
0.945   96.98853302 98.55960846 97.77407074
0.946   96.9965744  98.5679245  97.78224945
0.947   96.99972534 98.54871368 97.77421951
0.948   96.98833466 98.56613922 97.77723694
0.949   97.00235748 98.55638885 97.77937317
0.95    96.99802399 98.57576752 97.78689576
0.951   96.99632263 98.5641861  97.78025437
0.952   97.006073   98.56854248 97.78730774
0.953   97.00408173 98.55571747 97.7798996
0.954   96.9936142  98.56411743 97.77886582
0.955   96.99824524 98.56298065 97.78061295
0.956   97.01369476 98.55348969 97.78359223
0.957   97.00344849 98.57617188 97.78981019
0.958   97.01644897 98.5480423  97.78224564
0.959   97.00341034 98.57541656 97.78941345
0.96    97.02307892 98.57078552 97.79693222
0.961   97.02128601 98.54277802 97.78203202
0.962   97.0070343  98.55554962 97.78129196
0.963   97.02935791 98.54761505 97.78848648
0.964   97.01133728 98.5680542  97.78969574
0.965   97.02167511 98.56258392 97.79212952
0.966   97.01241302 98.53623962 97.77432632
0.967   97.01898956 98.5914917  97.80524063
0.968   97.02790833 98.56264496 97.79527665
0.969   97.04319    98.54620361 97.79469681
0.97    97.04025269 98.55544281 97.79784775
0.971   97.03115845 98.54954529 97.79035187
0.972   97.03540802 98.55405426 97.79473114
0.973   97.04576111 98.54956818 97.79766465
0.974   97.02084351 98.56965637 97.79524994
0.975   97.02372742 98.54341125 97.78356934
0.976   97.02511597 98.53885651 97.78198624
0.977   97.02354431 98.54771423 97.78562927
0.978   97.04357147 98.56098938 97.80228043
0.979   97.0370636  98.54559326 97.79132843
0.98    97.04359436 98.54917908 97.79638672
0.981   97.03730011 98.54290009 97.7901001
0.982   97.04722595 98.55574036 97.80148316
0.983   97.04292297 98.54063416 97.79177857
0.984   97.05207062 98.54747772 97.79977417
0.985   97.04738617 98.54000092 97.79369355
0.986   97.05427551 98.55019379 97.80223465
0.987   97.04486847 98.53443146 97.78964997
0.988   97.06341553 98.53941345 97.80141449
0.989   97.05165863 98.5451889  97.79842377
0.99    97.03473663 98.53773499 97.78623581
0.991   97.05550385 98.53240967 97.79395676
0.992   97.04458618 98.54804993 97.79631806
0.993   97.06282043 98.54193878 97.80237961
0.994   97.061409   98.52983856 97.79562378
0.995   97.05915833 98.53679657 97.79797745
0.996   97.07821655 98.53869629 97.80845642
0.997   97.06170654 98.54328156 97.80249405
0.998   97.05936432 98.52856445 97.79396439
0.999   97.07268524 98.51906586 97.79587555
1   97.0639267  98.53056335 97.79724503
1.001   97.06620789 98.54029083 97.80324936
1.002   97.06755829 98.53287506 97.80021668
1.003   97.0711441  98.53234863 97.80174637
1.004   97.06845856 98.52613831 97.79729844
1.005   97.06803894 98.5200882  97.79406357
1.006   97.07748413 98.51371765 97.79560089
1.007   97.07487488 98.51468658 97.79478073
1.008   97.08065033 98.53148651 97.80606842
1.009   97.07214355 98.52236938 97.79725647
1.01    97.07426453 98.51904297 97.79665375
1.011   97.07419586 98.48894501 97.78157044
1.012   97.08761597 98.52282715 97.80522156
1.013   97.07183838 98.51364899 97.79274369
1.014   97.08369446 98.49882507 97.79125977
1.015   97.07801819 98.5218811  97.79994965
1.016   97.10340118 98.51264954 97.80802536
1.017   97.07274628 98.49533081 97.78403855
1.018   97.08262634 98.49430084 97.78846359
1.019   97.09352875 98.5127182  97.80312348
1.02    97.10253906 98.48969269 97.79611588
1.021   97.09461212 98.4848938  97.78975296
1.022   97.09384155 98.49700928 97.79542542
1.023   97.09223175 98.50167847 97.79695511
1.024   97.10158539 98.48277283 97.79217911
1.025   97.10320282 98.4732666  97.78823471
1.026   97.09944916 98.49603271 97.79774094
1.027   97.10598755 98.47937012 97.79267884
1.028   97.08892059 98.48088837 97.78490448
1.029   97.09318542 98.4753952  97.78429031
1.03    97.1014328  98.48947144 97.79545212
1.031   97.09819794 98.48571777 97.79195786
1.032   97.10312653 98.47718811 97.79015732
1.033   97.11317444 98.45401001 97.78359223
1.034   97.11862183 98.49053955 97.80458069
1.035   97.11347198 98.46569061 97.7895813
1.036   97.10334778 98.46390533 97.78362656
1.037   97.11936951 98.4512558  97.78531266
1.038   97.10141754 98.46505737 97.78323746
1.039   97.11669922 98.4569931  97.78684616
1.04    97.12624359 98.45317078 97.78970719
1.041   97.12763214 98.44648743 97.78705979
1.042   97.11322784 98.47444916 97.7938385
1.043   97.11907959 98.44261169 97.78084564
1.044   97.12484741 98.43795013 97.78139877
1.045   97.12401581 98.44999695 97.78700638
1.046   97.13046265 98.43852234 97.7844925
1.047   97.10781097 98.41426849 97.76103973
1.048   97.12597656 98.41153717 97.76875687
1.049   97.13176727 98.43933868 97.78555298
1.05    96.81967926 98.49849701 97.65908814
1.051   96.81824493 98.50125122 97.65974808
1.052   96.82966614 98.49163055 97.66064835
1.053   96.81812286 98.49317932 97.65565109
1.054   96.82728577 98.50016022 97.663723
1.055   96.82978058 98.49503326 97.66240692
1.056   96.80848694 98.49362183 97.65105439
1.057   96.83939362 98.49698639 97.66819001
1.058   96.81587219 98.48987579 97.65287399
1.059   96.82915497 98.49201965 97.66058731
1.06    96.81794739 98.51366425 97.66580582
1.061   96.79830933 98.51547241 97.65689087
1.062   96.81797028 98.48469543 97.65133286
1.063   96.82345581 98.5004425  97.66194916
1.064   96.80774689 98.49187469 97.64981079
1.065   96.83309937 98.50138092 97.66724015
1.066   96.80511475 98.48732758 97.64622117
1.067   96.81388855 98.49415588 97.65402222
1.068   96.82305145 98.48377991 97.65341568
1.069   96.81290436 98.48043823 97.6466713
1.07    96.81804657 98.46655273 97.64229965
1.071   96.80717468 98.48907471 97.6481247
1.072   96.82689667 98.4775238  97.65221024
1.073   96.82592773 98.53012085 97.67802429
1.074   96.80836487 98.52416229 97.66626358
1.075   96.80905151 98.51985168 97.6644516
1.076   96.83926392 98.5245285  97.68189621
1.077   96.85987854 98.50676727 97.68332291
1.078   96.83235168 98.50408173 97.66821671
1.079   96.8157196  98.46546936 97.64059448
1.08    96.8070755  98.46953583 97.63830567
1.081   96.78177643 98.46125793 97.62151718
1.082   96.80000305 98.4282608  97.61413193
1.083   96.7829895  98.44750214 97.61524582
1.084   96.79460907 98.45819092 97.6264
1.085   96.78836823 98.44805908 97.61821366
1.086   96.81401825 98.45763397 97.63582611
1.087   96.7970047  98.47020721 97.63360596
1.088   96.79916382 98.43917847 97.61917115
1.089   96.81239319 98.48877716 97.65058518
1.09    96.81324005 98.43628693 97.62476349
1.091   96.79502106 98.49552155 97.64527131
1.092   96.83026886 98.40381622 97.61704254
1.093   96.77115631 98.49552917 97.63334274
1.094   96.83638    98.42224121 97.62931061
1.095   96.79293823 98.48724365 97.64009094
1.096   96.828125   98.42684174 97.62748337
1.097   96.8057251  98.46957397 97.63764954
1.098   96.8516922  98.42848206 97.64008713
1.099   96.82377625 98.4879837  97.65587998
1.1 96.8070755  98.40975952 97.60841751
1.101   96.81505585 98.47183228 97.64344407
1.102   96.82232666 98.40827179 97.61529923
1.103   96.79610443 98.47873688 97.63742066
1.104   96.81128693 98.39025879 97.60077286
1.105   96.78825378 98.47154236 97.62989807
1.106   96.81630707 98.38831329 97.60231018
1.107   96.79748535 98.46579742 97.63164139
1.108   96.8021698  98.39356995 97.59786988
1.109   96.80661011 98.42855072 97.61758042
1.11    96.79082489 98.47099304 97.63090897
1.111   96.78264618 98.38567352 97.58415985
1.112   96.79388428 98.41590881 97.60489655
1.113   96.80594635 98.44737244 97.6266594
1.114   96.79640961 98.39689636 97.59665299
1.115   96.79610443 98.42742157 97.611763
1.116   96.8170929  98.4016571  97.609375
1.117   96.813591   98.40461731 97.60910416
1.118   96.80498505 98.4093399  97.60716248
1.119   96.81986237 98.42167664 97.62076951
1.12    96.80078125 98.40232086 97.60155106
1.121   96.81421661 98.38706207 97.60063934
1.122   96.81040955 98.41195679 97.61118317
1.123   96.79959869 98.35011292 97.57485581
1.124   96.84035492 98.41762543 97.62899018
1.125   96.77212524 98.40648651 97.58930588
1.126   96.83296967 98.3709259  97.60194779
1.127   96.83380127 98.38004303 97.60692215
1.128   96.7652359  98.3804245  97.5728302
1.129   96.84109497 98.4028244  97.62195969
1.13    96.77323151 98.37864685 97.57593918
1.131   96.82073975 98.33016968 97.57545472
1.132   96.80648804 98.4208374  97.61366272
1.133   96.78678131 98.38459015 97.58568573
1.134   96.81307983 98.34954834 97.58131409
1.135   96.81407928 98.38297272 97.598526
1.136   96.82000732 98.37654114 97.59827423
1.137   96.80397797 98.33176422 97.5678711
1.138   96.79509735 98.35689545 97.5759964
1.139   96.80233765 98.37827301 97.59030533
1.14    96.78710175 98.32649994 97.55680085
1.141   96.81672668 98.3603363  97.58853149
1.142   96.80006409 98.34452057 97.57229233
1.143   96.79745483 98.35034943 97.57390213
1.144   96.78787231 98.31929779 97.55358505
1.145   96.82732391 98.32859802 97.57796097
1.146   96.79476929 98.36958313 97.58217621
1.147   96.74648285 98.2947998  97.52064133
1.148   96.85663605 98.32197571 97.58930588
1.149   96.80362701 98.3568573  97.58024216
1.15    96.74343109 98.26580048 97.50461579
1.151   96.84242249 98.30699921 97.57471085
1.152   96.79221344 98.36359406 97.57790375
1.153   96.75948334 98.30110931 97.53029633
1.154   96.8486557  98.2100296  97.52934265
1.155   96.8156662  98.29332733 97.55449677
1.156   96.78871918 98.34186554 97.56529236
1.157   96.77165985 98.24454498 97.50810242
1.158   96.7910614  98.29103088 97.54104614
1.159   96.79831696 98.26865387 97.53348542
1.16    96.78850555 98.33187866 97.56019211
1.161   96.8177948  98.28121185 97.54950333
1.162   96.76916504 98.2124939  97.49082947
1.163   96.79318237 98.30369568 97.54843903
1.164   96.77539063 98.29602814 97.53570939
1.165   96.80744171 98.23497009 97.5212059
1.166   96.78484344 98.24888611 97.51686478
1.167   96.77763367 98.29859161 97.53811264
1.168   96.78042603 98.27254486 97.52648545
1.169   96.80942535 98.19801331 97.50371933
1.17    96.79101563 98.25019836 97.520607
1.171   96.78243256 98.30303192 97.54273224
1.172   96.78472137 98.25973511 97.52222824
1.173   96.80893707 98.24384308 97.52639008
1.174   96.79735565 98.18040466 97.48888016
1.175   96.79636383 98.26224518 97.52930451
1.176   96.7745285  98.23694611 97.50573731
1.177   96.81880188 98.21910858 97.51895523
1.178   96.78673553 98.17176056 97.47924805
1.179   96.7877121  98.21789551 97.50280381
1.18    96.81778717 98.29669952 97.55724335
1.181   96.82030487 98.2191925  97.51974869
1.182   96.79367065 98.21539307 97.50453186
1.183   96.79329681 98.18693542 97.49011612
1.184   96.79877472 98.12887573 97.46382523
1.185   96.65706635 98.19168091 97.42437363
1.186   96.76779175 98.1607132  97.46425248
1.187   96.7723465  98.1847229  97.4785347
1.188   96.77328491 98.17922974 97.47625733
1.189   96.87520599 98.23748016 97.55634308
1.19    96.75882721 98.18289948 97.47086335
1.191   96.77886963 98.17746735 97.47816849
1.192   96.77883148 98.16757965 97.47320557
1.193   96.75746918 98.14884186 97.45315552
1.194   96.80534363 98.18453979 97.49494171
1.195   96.77391815 98.17116547 97.47254181
1.196   96.77587891 98.15910339 97.46749115
1.197   96.78735352 98.16365051 97.47550202
1.198   96.76777649 98.14962006 97.45869828
1.199   96.80297089 98.15081024 97.47689057
1.2 96.871521   98.10330963 97.48741532
1.201   96.77661896 98.15779114 97.46720505
1.202   96.77923584 98.13327026 97.45625305
1.203   96.76678467 98.11372375 97.44025421
1.204   96.7843399  98.13886261 97.46160126
1.205   96.79851532 98.08563232 97.44207382
1.206   96.80363464 98.13209534 97.46786499
1.207   96.72020721 98.12039185 97.42029953
1.208   96.78038025 98.11795044 97.44916535
1.209   96.76876068 98.09840393 97.43358231
1.21    96.79441833 98.09171295 97.44306564
1.211   96.75297546 98.11610413 97.4345398
1.212   96.77623749 98.10040283 97.43832016
1.213   96.75627136 98.08603668 97.42115402
1.214   96.78885651 98.05495453 97.42190552
1.215   96.80667877 98.07593536 97.44130707
1.216   96.75798035 98.12042999 97.43920517
1.217   96.74629211 98.07688904 97.41159058
1.218   96.75719452 98.07111359 97.41415406
1.219   96.77398682 98.06088257 97.4174347
1.22    96.82509613 98.06335449 97.44422531
1.221   96.73434448 97.96549988 97.34992218
1.222   96.74538422 98.04431152 97.39484787
1.223   96.77154541 98.04833221 97.40993881
1.224   96.78894806 98.11530304 97.45212555
1.225   96.75   98.04735565 97.39867783
1.226   96.83068085 98.01528168 97.42298127
1.227   96.78308105 98.0152359  97.39915848
1.228   96.7244873  98.03857422 97.38153076
1.229   96.74669647 98.01498413 97.3808403
1.23    96.76192474 98.04035187 97.40113831
1.231   96.77060699 98.04673004 97.40866852
1.232   96.7538147  97.96233368 97.35807419
1.233   96.70246124 98.01841736 97.3604393
1.234   96.73695374 98.01985931 97.37840653
1.235   96.84989929 98.00828552 97.42909241
1.236   96.75802612 98.03343964 97.39573288
1.237   96.75575256 98.01481628 97.38528442
1.238   96.77368164 98.00986481 97.39177323
1.239   96.7625885  97.99312592 97.37785721
1.24    96.76863861 98.00348663 97.38606262
1.241   96.76167297 97.99882507 97.38024902
1.242   96.7833786  97.94573212 97.36455536
1.243   96.74699402 97.9125824  97.32978821
1.244   96.75292206 97.95543671 97.35417939
1.245   96.73661804 97.97424316 97.3554306
1.246   96.60540771 97.94776154 97.27658463
1.247   96.72283173 97.92855835 97.32569504
1.248   96.75750732 97.94921875 97.35336304
1.249   96.87335205 97.91841125 97.39588165
1.25    96.76203156 97.92631531 97.34417344
1.251   96.74601746 97.94281769 97.34441758
1.252   96.73163605 97.9280014  97.32981873
1.253   96.75571442 97.90908051 97.33239747
1.254   96.75582886 97.91576385 97.33579636
1.255   96.76346588 97.89186859 97.32766724
1.256   96.77879333 97.88861084 97.33370209
1.257   96.77109528 97.9052124  97.33815384
1.258   96.76860046 97.90221405 97.33540726
1.259   96.74047089 97.89853668 97.31950379
1.26    96.72294617 97.88282776 97.30288697
1.261   96.74868011 97.85917664 97.30392838
1.262   96.76387787 97.87911987 97.32149887
1.263   96.76288605 97.87640381 97.31964493
1.264   96.74700928 97.88304901 97.31502915
1.265   96.7427063  97.83502197 97.28886414
1.266   96.74389648 97.86110687 97.30250168
1.267   96.73607635 97.84024048 97.28815842
1.268   96.74980927 97.82978821 97.28979874
1.269   96.73999786 97.82701874 97.2835083
1.27    96.74308014 97.83969116 97.29138565
1.271   96.74944305 97.84745789 97.29845047
1.272   96.73655701 97.80319214 97.26987458
1.273   96.71966553 97.80962372 97.26464463
1.274   96.73552704 97.8250351  97.28028107
1.275   96.74011993 97.81617737 97.27814865
1.276   96.74545288 97.79167938 97.26856613
1.277   96.76161957 97.80019379 97.28090668
1.278   96.73738861 97.79894257 97.26816559
1.279   96.73548889 97.78637695 97.26093292
1.28    96.72068024 97.77239227 97.24653626
1.281   96.71797943 97.76309204 97.24053574
1.282   96.7226944  97.7868042  97.2547493
1.283   96.7520752  97.76127625 97.25667573
1.284   96.74217987 97.75643921 97.24930954
1.285   96.74560547 97.7694397  97.25752259
1.286   96.73831177 97.73586273 97.23708725
1.287   96.74610138 97.74419403 97.24514771
1.288   96.70832825 97.74337769 97.22585297
1.289   96.71546173 97.70561218 97.21053696
1.29    96.73028564 97.73923492 97.23476028
1.291   96.73291016 97.71885681 97.22588349
1.292   96.7387619  97.739151   97.23895645
1.293   96.73667145 97.71871185 97.22769165
1.294   96.7207489  97.70368195 97.21221543
1.295   96.72641754 97.68553925 97.2059784
1.296   96.71712494 97.71346283 97.21529389
1.297   96.71308136 97.7073288  97.21020508
1.298   96.71775818 97.68969727 97.20372773
1.299   96.72386169 97.67533875 97.19960022
1.3 96.72466278 97.69773865 97.21120072
1.301   96.71209717 97.68307495 97.19758606
1.302   96.71617889 97.68177032 97.19897461
1.303   96.69720459 97.67088318 97.18404389
1.304   96.71469116 97.68318176 97.19893646
1.305   96.70600128 97.65752411 97.1817627
1.306   96.71588898 97.65288544 97.18438721
1.307   96.71098328 97.65637207 97.18367768
1.308   96.70877075 97.66105652 97.18491364
1.309   96.7617569  97.65636444 97.20906067
1.31    96.72419739 97.55438232 97.13928986
1.311   96.70661163 97.62605286 97.16633225
1.312   96.64985657 97.64479065 97.14732361
1.313   96.69416046 97.62250519 97.15833283
1.314   96.61735535 97.59003448 97.10369492
1.315   96.69886017 97.63056946 97.16471482
1.316   96.71362305 97.58552551 97.14957428
1.317   96.71334839 97.56892395 97.14113617
1.318   96.71076965 97.59118652 97.15097809
1.319   96.70645905 97.57588196 97.14117051
1.32    96.70296478 97.58083344 97.14189911
1.321   96.70897675 97.55265808 97.13081742
1.322   96.71025848 97.55852509 97.13439179
1.323   96.70226288 97.55146027 97.12686158
1.324   96.70831299 97.54763794 97.12797547
1.325   96.70433044 97.54366302 97.12399673
1.326   96.71122742 97.53327179 97.12224961
1.327   96.70127869 97.54244995 97.12186432
1.328   96.71572876 97.52050781 97.11811829
1.329   96.6884613  97.52162933 97.10504532
1.33    96.69969177 97.52219391 97.11094284
1.331   96.7025528  97.50934601 97.10594941
1.332   96.69641876 97.4948349  97.09562683
1.333   96.68388367 97.49575806 97.08982087
1.334   96.69620514 97.50064087 97.09842301
1.335   96.70546722 97.48479462 97.09513092
1.336   96.68244934 97.48158264 97.08201599
1.337   96.68749237 97.4814682  97.08448029
1.338   96.69368744 97.45323944 97.07346344
1.339   96.6941452  97.46363831 97.07889176
1.34    96.70475769 97.47044373 97.08760071
1.341   96.67029572 97.44979858 97.06004715
1.342   96.6789093  97.44394684 97.06142807
1.343   96.69525909 97.41130829 97.05328369
1.344   96.66517639 97.43435669 97.04976654
1.345   96.68060303 97.43997955 97.06029129
1.346   96.67881012 97.3977356  97.03827286
1.347   96.67694092 97.40271759 97.03982926
1.348   96.67954254 97.40261078 97.04107666
1.349   96.66766357 97.43049622 97.0490799
1.35    96.66130066 97.40670013 97.0340004
1.351   96.66379547 97.39112091 97.02745819
1.352   96.64640808 97.37944794 97.01292801
1.353   96.6567688  97.40110016 97.02893448
1.354   96.67261505 97.38915253 97.03088379
1.355   96.65592957 97.36776733 97.01184845
1.356   96.66467285 97.36859894 97.0166359
1.357   96.66074371 97.36079407 97.01076889
1.358   96.65525055 97.35601044 97.0056305
1.359   96.65695953 97.36093903 97.00894928
1.36    96.64424896 97.33553314 96.98989105
1.361   96.65737915 97.35938263 97.00838089
1.362   96.66397858 97.3303833  96.99718094
1.363   96.65703583 97.32298279 96.99000931
1.364   96.67017365 97.34909821 97.00963593
1.365   96.66078949 97.3089447  96.9848671
1.366   96.66751099 97.29933929 96.98342514
1.367   96.67518616 97.33960724 97.0073967
1.368   96.66384125 97.30873871 96.98628998
1.369   96.68776703 97.28911591 96.98844147
1.37    96.65658569 97.26490784 96.96074677
1.371   96.65075684 97.29576111 96.97325898
1.372   96.65924072 97.29705811 96.97814942
1.373   96.66048431 97.27329254 96.96688843
1.374   96.66360474 97.26550293 96.96455384
1.375   96.64849854 97.26815033 96.95832444
1.376   96.63763428 97.25218201 96.94490815
1.377   96.63539886 97.25596619 96.94568253
1.378   96.65071869 97.25291443 96.95181656
1.379   96.63394928 97.22453308 96.92924118
1.38    96.63646698 97.25906372 96.94776535
1.381   96.64675903 97.19391632 96.92033768
1.382   96.6312027  97.18838501 96.90979386
1.383   96.6440506  97.2408371  96.94244385
1.384   96.65392303 97.19961548 96.92676926
1.385   96.63278198 97.17446899 96.90362549
1.386   96.6736908  97.1847229  96.92920685
1.387   96.63395691 97.17040253 96.90217972
1.388   96.63937378 97.18750763 96.91344071
1.389   96.63614655 97.16412354 96.90013505
1.39    96.64630127 97.18717194 96.91673661
1.391   96.6820755  97.14498901 96.91353226
1.392   96.63417053 97.14841461 96.89129257
1.393   96.63726044 97.13071442 96.88398743
1.394   96.6383667  97.144104   96.89123535
1.395   96.65912628 97.13938141 96.89925385
1.396   96.6286087  97.10668182 96.86764526
1.397   96.67727661 97.13032532 96.90380097
1.398   96.62023926 97.12058258 96.87041092
1.399   96.62071228 97.10296631 96.8618393
1.4 96.63738251 97.06583405 96.85160828
1.401   96.63852692 97.18187714 96.91020203
1.402   96.61771393 97.09708405 96.85739899
1.403   96.60305786 97.0793457  96.84120178
1.404   96.60429382 97.06440735 96.83435059
1.405   96.58345032 97.07923126 96.83134079
1.406   96.59660339 97.10920715 96.85290527
1.407   96.60612488 97.04348755 96.82480622
1.408   96.59470367 96.98008728 96.78739548
1.409   96.64167023 97.10327148 96.87247086
1.41    96.63375854 97.05209351 96.84292603
1.411   96.61274719 97.03028107 96.82151413
1.412   96.62161255 97.02919769 96.82540512
1.413   96.60011292 97.02853394 96.81432343
1.414   96.61817932 97.00206757 96.81012345
1.415   96.64305115 96.97297668 96.80801392
1.416   96.61899567 96.99494171 96.80696869
1.417   96.59632874 97.01319122 96.80475998
1.418   96.60120392 96.91637421 96.75878907
1.419   96.61009216 96.98501587 96.79755402
1.42    96.62374115 96.99861908 96.81118012
1.421   96.60903931 96.97467041 96.79185486
1.422   96.61517334 96.9526062  96.78388977
1.423   96.58543396 96.96686554 96.77614975
1.424   96.61013031 96.95445251 96.78229141
1.425   96.60514832 96.97052002 96.78783417
1.426   96.5941391  96.93833923 96.76623917
1.427   96.60063171 96.93258667 96.76660919
1.428   96.63884735 96.95611572 96.79748154
1.429   96.62068176 96.9342804  96.77748108
1.43    96.58784485 96.90261841 96.74523163
1.431   96.60643005 96.91429138 96.76036072
1.432   96.60906982 96.93962097 96.7743454
1.433   96.61082458 96.89337921 96.7521019
1.434   96.59402466 96.88934326 96.74168396
1.435   96.60209656 96.91239929 96.75724793
1.436   96.59536743 96.89907837 96.7472229
1.437   96.6129837  96.88635254 96.74966812
1.438   96.60185242 96.8925705  96.74721146
1.439   96.58737946 96.89054108 96.73896027
1.44    96.6035614  96.87307739 96.7383194
1.441   96.6022644  96.87624359 96.739254
1.442   96.59112549 96.86727905 96.72920227
1.443   96.62078857 96.86836243 96.7445755
1.444   96.60218048 96.85170746 96.72694397
1.445   96.61574554 96.82631683 96.72103119
1.446   96.60346222 96.85941315 96.73143769
1.447   96.60810089 96.84136963 96.72473526
1.448   96.5946579  96.84358978 96.71912384
1.449   96.5858078  96.84038544 96.71309662
1.45    96.60123444 96.84883881 96.72503663
1.451   96.60647583 96.81217957 96.7093277
1.452   96.58877563 96.81845856 96.7036171
1.453   96.59082794 96.81247711 96.70165253
1.454   96.59842682 96.83280182 96.71561432
1.455   96.59594727 96.81730652 96.7066269
1.456   96.57044983 96.82072449 96.69558716
1.457   96.58590698 96.81065369 96.69828034
1.458   96.59959412 96.81151581 96.70555497
1.459   96.59041595 96.80939484 96.6999054
1.46    96.57962036 96.78787231 96.68374634
1.461   96.6053772  96.72891998 96.66714859
1.462   96.58731079 96.78648376 96.68689728
1.463   96.59626007 96.82393646 96.71009827
1.464   96.58470154 96.78585815 96.68527985
1.465   96.56926727 96.79183197 96.68054962
1.466   96.59026337 96.78369141 96.68697739
1.467   96.58998871 96.74925232 96.66962052
1.468   96.55354309 96.73207092 96.64280701
1.469   96.60992432 96.77266693 96.69129563
1.47    96.59364319 96.74491119 96.66927719
1.471   96.58496094 96.75762939 96.67129517
1.472   96.58797455 96.72944641 96.65871048
1.473   96.60242462 96.75863647 96.68053055
1.474   96.60601044 96.73066711 96.66833878
1.475   96.572258   96.71759796 96.64492798
1.476   96.5899353  96.70569611 96.64781571
1.477   96.55397797 96.72888947 96.64143372
1.478   96.60640717 96.7569809  96.68169404
1.479   96.57670593 96.71433258 96.64551926
1.48    96.58975983 96.71266174 96.65121079
1.481   96.58110809 96.69000244 96.63555527
1.482   96.59217834 96.68048096 96.63632965
1.483   96.58325195 96.70420074 96.64372635
1.484   96.5725174  96.70126343 96.63689042
1.485   96.56842041 96.6897049  96.62906266
1.486   96.60687256 96.72834778 96.66761017
1.487   96.59841919 96.68283081 96.640625
1.488   96.6098938  96.64453888 96.62721634
1.489   96.58525848 96.66542816 96.62534332
1.49    96.52581024 96.65812683 96.59196854
1.491   96.59223938 96.67483521 96.6335373
1.492   96.60253906 96.66905212 96.63579559
1.493   96.57878876 96.69182587 96.63530732
1.494   96.55970764 96.61676025 96.58823395
1.495   96.52993774 96.65979767 96.59486771
1.496   96.58123016 96.6448822  96.61305618
1.497   96.57083893 96.64157867 96.6062088
1.498   96.57234955 96.65704346 96.61469651
1.499   96.59152985 96.61012268 96.60082627
1.5 96.56661987 96.6576004  96.61211014
1.501   96.51522827 96.62505341 96.57014084
1.502   96.55215454 96.61820221 96.58517838
1.503   96.6506424  96.63212585 96.64138413
1.504   96.58487701 96.61238098 96.598629
1.505   96.53224182 96.61450195 96.57337189
1.506   96.56463623 96.62523651 96.59493637
1.507   96.57290649 96.59018707 96.58154678
1.508   96.56575775 96.60491943 96.58533859
1.509   96.58885193 96.60517883 96.59701538
1.51    96.57162476 96.62493896 96.59828186
1.511   96.55538177 96.58811188 96.57174683
1.512   96.55768585 96.60378265 96.58073425
1.513   96.58634949 96.56961823 96.57798386
1.514   96.60205841 96.58440399 96.5932312
1.515   96.54653931 96.58289337 96.56471634
1.516   96.55065918 96.52811432 96.53938675
1.517   96.59535217 96.58481598 96.59008408
1.518   96.60196686 96.59158325 96.59677506
1.519   96.53713989 96.56641388 96.55177689
1.52    96.56324768 96.53483582 96.54904175
1.521   96.59740448 96.58088684 96.58914566
1.522   96.57722473 96.56654358 96.57188416
1.523   96.5207901  96.56710052 96.54394531
1.524   96.57006836 96.5304718  96.55027008
1.525   96.59482574 96.57073212 96.58277893
1.526   96.57370758 96.57450104 96.57410431
1.527   96.51365662 96.51818085 96.51591874
1.528   96.58249664 96.5295639  96.55603027
1.529   96.58558655 96.54440308 96.56499482
1.53    96.57118988 96.59490967 96.58304978
1.531   96.55006409 96.4691391  96.5096016
1.532   96.48491669 96.51058197 96.49774933
1.533   96.62103271 96.53294373 96.57698822
1.534   96.55578613 96.55981445 96.55780029
1.535   96.55975342 96.45204163 96.50589753
1.536   96.58615875 96.51555634 96.55085755
1.537   96.54512024 96.50930786 96.52721405
1.538   96.55986786 96.49934387 96.52960587
1.539   96.55269623 96.55683899 96.55476761
1.54    96.55574799 96.44242859 96.49908829
1.541   96.55609131 96.49141693 96.52375412
1.542   96.55093384 96.48381805 96.51737595
1.543   96.55136108 96.47904205 96.51520157
1.544   96.56412506 96.51285553 96.5384903
1.545   96.55550385 96.48949432 96.52249909
1.546   96.55926514 96.46783447 96.51354981
1.547   96.55158234 96.47914886 96.5153656
1.548   96.56257629 96.51226044 96.53741837
1.549   96.58847046 96.44917297 96.51882172
1.55    96.52809906 96.48130798 96.50470352
1.551   96.55217743 96.47681427 96.51449585
1.552   96.60318756 96.46967316 96.53643036
1.553   96.55640411 96.4385376  96.49747086
1.554   96.53643036 96.47605133 96.50624085
1.555   96.58966827 96.43480682 96.51223755
1.556   96.54303741 96.44678497 96.49491119
1.557   96.54291534 96.47047424 96.50669479
1.558   96.55272675 96.4529953  96.50286103
1.559   96.55994415 96.40219116 96.48106766
1.56    96.50713348 96.46775055 96.48744202
1.561   96.55588531 96.46403503 96.50996017
1.562   96.58978271 96.43249512 96.51113892
1.563   96.51139069 96.43747711 96.4744339
1.564   96.53000641 96.48066711 96.50533676
1.565   96.54893494 96.40823364 96.47858429
1.566   96.58411407 96.39383698 96.48897553
1.567   96.53160858 96.4239502  96.47777939
1.568   96.53131104 96.50712585 96.51921845
1.569   96.58281708 96.35823059 96.47052384
1.57    96.49059296 96.45198822 96.47129059
1.571   96.55096436 96.41434479 96.48265458
1.572   96.5708313  96.42649841 96.49866486
1.573   96.51502228 96.40895081 96.46198655
1.574   96.55164337 96.40422058 96.47793198
1.575   96.56680298 96.38594818 96.47637558
1.576   96.52987671 96.43177795 96.48082733
1.577   96.52905273 96.39990997 96.46448135
1.578   96.57657623 96.39328003 96.48492813
1.579   96.53679657 96.41837311 96.47758484
1.58    96.52380371 96.40224457 96.46302414
1.581   96.58937073 96.37910461 96.48423767
1.582   96.53581238 96.42946625 96.48263932
1.583   96.52046204 96.37779236 96.4491272
1.584   96.57813263 96.38354492 96.48083878
1.585   96.57041931 96.40773773 96.48907852
1.586   96.50354767 96.37168884 96.43761826
1.587   96.55872345 96.36877441 96.46374893
1.588   96.55096436 96.39866638 96.47481537
1.589   96.57601929 96.38457489 96.48029709
1.59    96.52028656 96.35660553 96.43844605
1.591   96.5272522  96.42644501 96.47684861
1.592   96.53593445 96.38205719 96.45899582
1.593   96.55387115 96.30979919 96.43183517
1.594   96.54686737 96.38362885 96.46524811
1.595   96.54638672 96.40650177 96.47644425
1.596   96.59918976 96.395401   96.49729538
1.597   96.46695709 96.36240387 96.41468048
1.598   96.53165436 96.27282715 96.40224076
1.599   96.55872345 96.42782593 96.49327469
1.6 96.53665161 96.37950134 96.45807648
1.601   96.51223755 96.33591461 96.42407608
1.602   96.54117584 96.37268829 96.45693207
1.603   96.5315094  96.35187531 96.44169236
1.604   96.52744293 96.37546539 96.45145416
1.605   96.54023743 96.34938049 96.44480896
1.606   96.52566528 96.35604858 96.44085693
1.607   96.53636932 96.35591125 96.44614029
1.608   96.53878021 96.36478424 96.45178223
1.609   96.54151917 96.34841919 96.44496918
1.61    96.51387787 96.35458374 96.43423081
1.611   96.54150391 96.34321594 96.44235993
1.612   96.54841614 96.35386658 96.45114136
1.613   96.52090454 96.38116455 96.45103455
1.614   96.54234314 96.29394531 96.41814423
1.615   96.54707336 96.33853149 96.44280243
1.616   96.5298233  96.40626526 96.46804428
1.617   96.46435547 96.25939941 96.36187744
1.618   96.59225464 96.33891296 96.4655838
1.619   96.51861572 96.39593506 96.45727539
1.62    96.4848175  96.30117798 96.39299774
1.621   96.57056427 96.30117798 96.43587113
1.622   96.53982544 96.32587433 96.43284989
1.623   96.5355835  96.35694122 96.44626236
1.624   96.52248383 96.33512115 96.42880249
1.625   96.52577209 96.32872009 96.42724609
1.626   96.53170013 96.33787537 96.43478775
1.627   96.51509094 96.32235718 96.41872406
1.628   96.53237152 96.31647491 96.42442322
1.629   96.55477142 96.31030273 96.43253708
1.63    96.51913452 96.30321503 96.41117478
1.631   96.49920654 96.3624649  96.43083572
1.632   96.55976868 96.31758881 96.43867875
1.633   96.53076935 96.29182434 96.41129685
1.634   96.50183105 96.37010193 96.43596649
1.635   96.56137848 96.31693268 96.43915558
1.636   96.54897308 96.27011108 96.40954208
1.637   96.49841309 96.35034943 96.42438126
1.638   96.55779266 96.31866455 96.43822861
1.639   96.54303741 96.28630066 96.41466904
1.64    96.4924469  96.35523987 96.42384339
1.641   96.56604767 96.304039   96.43504334
1.642   96.53195953 96.30171967 96.4168396
1.643   96.52948761 96.35372162 96.44160462
1.644   96.53476715 96.27161407 96.40319061
1.645   96.51486969 96.27101135 96.39294052
1.646   96.51837158 96.30791473 96.41314316
1.647   96.51302338 96.34931946 96.43117142
1.648   96.55535126 96.27840424 96.41687775
1.649   96.50854492 96.30522919 96.40688706
1.65    96.53144836 96.3303833  96.43091583
1.651   96.53786469 96.28349304 96.41067887
1.652   96.52217865 96.30409241 96.41313553
1.653   96.52619171 96.32013702 96.42316437
1.654   96.52114868 96.29670715 96.40892792
1.655   96.51034546 96.29582214 96.4030838
1.656   96.54158783 96.31522369 96.42840576
1.657   96.53464508 96.31306458 96.42385483
1.658   96.52667999 96.27838135 96.40253067
1.659   96.53398132 96.31403351 96.42400742
1.66    96.53211212 96.32137299 96.42674256
1.661   96.51171112 96.30395508 96.4078331
1.662   96.52761078 96.30632019 96.41696549
1.663   96.53731537 96.31584167 96.42657852
1.664   96.51596069 96.27373505 96.39484787
1.665   96.53305817 96.3533783  96.44321824
1.666   96.51965332 96.28872681 96.40419007
1.667   96.52970123 96.28196716 96.4058342
1.668   96.53173828 96.35361481 96.44267655
1.669   96.50846863 96.31492615 96.41169739
1.67    96.53513336 96.27307892 96.40410614
1.671   96.529953   96.33872223 96.43433762
1.672   96.52906799 96.31300354 96.42103577
1.673   96.54133606 96.31932831 96.43033219
1.674   96.54112244 96.28492737 96.41302491
1.675   96.5141983  96.31430817 96.41425324
1.676   96.52895355 96.30130768 96.41513062
1.677   96.52500916 96.31108093 96.41804505
1.678   96.53097534 96.26503754 96.39800644
1.679   96.52754974 96.33625031 96.43190003
1.68    96.51265717 96.3374176  96.42503739
1.681   96.54721069 96.27082825 96.40901947
1.682   96.53227234 96.28948212 96.41087723
1.683   96.51902771 96.35073853 96.43488312
1.684   96.52335358 96.27100372 96.39717865
1.685   96.53866577 96.27879333 96.40872955
1.686   96.52142334 96.34806824 96.43474579
1.687   96.52415466 96.29740906 96.41078186
1.688   96.52848816 96.33109283 96.4297905
1.689   96.53826904 96.31044006 96.42435455
1.69    96.52785492 96.30628967 96.4170723
1.691   96.52688599 96.3349762  96.4309311
1.692   96.5450592  96.33376312 96.43941116
1.693   96.51580811 96.26109314 96.38845063
1.694   96.52533722 96.35139465 96.43836594
1.695   96.54093933 96.33707428 96.43900681
1.696   96.53414154 96.2342453  96.38419342
1.697   96.44953918 96.34284973 96.39619446
1.698   96.57910156 96.34148407 96.46029282
1.699   96.52983093 96.3140564  96.42194367
1.7 96.53192902 96.28069305 96.40631104
1.701   96.45652008 96.2273407  96.34193039
1.702   96.6001358  96.39645386 96.49829483
1.703   96.54618073 96.33584595 96.44101334
1.704   96.46520233 96.27429199 96.36974716
1.705   96.56993103 96.3597641  96.46484757
1.706   96.53145599 96.32048798 96.42597199
1.707   96.51609039 96.30712891 96.41160965
1.708   96.53144836 96.32235718 96.42690277
1.709   96.57093811 96.33345795 96.45219803
1.71    96.48565674 96.28477478 96.38521576
1.711   96.53832245 96.35354614 96.4459343
1.712   96.54151917 96.31902313 96.43027115
1.713   96.49511719 96.2910614  96.3930893
1.714   96.53633881 96.34470367 96.44052124
1.715   96.56571198 96.34703064 96.45637131
1.716   96.48587036 96.29258728 96.38922882
1.717   96.51773834 96.31362915 96.41568375
1.718   96.57192993 96.37188721 96.47190857
1.719   96.49932098 96.29373169 96.39652634
1.72    96.50840759 96.33495331 96.42168045
1.721   96.55489349 96.37590027 96.46539688
1.722   96.50706482 96.30921936 96.40814209
1.723   96.5617981  96.34648895 96.45414353
1.724   96.52833557 96.36863708 96.44848633
1.725   96.54711151 96.33849335 96.44280243
1.726   96.47711182 96.2771759  96.37714386
1.727   96.55568695 96.36242676 96.45905686
1.728   96.51938629 96.34320831 96.4312973
1.729   96.51164246 96.31782532 96.41473389
1.73    96.5378952  96.34345245 96.44067383
1.731   96.53855133 96.33901978 96.43878556
1.732   96.53027344 96.33031464 96.43029404
1.733   96.49793243 96.32501984 96.41147614
1.734   96.55501556 96.33695984 96.4459877
1.735   96.53064728 96.34614563 96.43839646
1.736   96.52999878 96.33905029 96.43452454
1.737   96.54164886 96.33100891 96.43632889
1.738   96.53093719 96.37928009 96.45510864
1.739   96.51585388 96.34029388 96.42807388
1.74    96.53316498 96.31137085 96.42226792
1.741   96.5457077  96.37540436 96.46055603
1.742   96.53314972 96.3572464  96.44519806
1.743   96.54171753 96.30743408 96.42457581
1.744   96.53736877 96.3724823  96.45492554
1.745   96.50953674 96.37373352 96.44163513
1.746   96.57125854 96.32263947 96.44694901
1.747   96.53845215 96.34487915 96.44166565
1.748   96.50185394 96.42590332 96.46387863
1.749   96.59523773 96.3236084  96.45942307
1.75    96.53926849 96.32888031 96.4340744
1.751   96.54637146 96.34532166 96.44584656
1.752   96.46237183 96.40787506 96.43512345
1.753   96.615242   96.31043243 96.46283722
1.754   96.52629089 96.36166382 96.44397736
1.755   96.49964142 96.40126038 96.4504509
1.756   96.57415009 96.36234283 96.46824646
1.757   96.52706146 96.36868286 96.44787216
1.758   96.5450592  96.37281036 96.45893478
1.759   96.53882599 96.39066315 96.46474457
1.76    96.55126953 96.38959503 96.47043228
1.761   96.53695679 96.34467316 96.44081498
1.762   96.53172302 96.37702942 96.45437622
1.763   96.56134033 96.39128113 96.47631073
1.764   96.54357147 96.35866547 96.45111847
1.765   96.54735565 96.37877655 96.4630661
1.766   96.53988647 96.3944397  96.46716309
1.767   96.53723907 96.36679077 96.45201492
1.768   96.56602478 96.38067627 96.47335053
1.769   96.5526123  96.40044403 96.47652817
1.77    96.5515976  96.3915329  96.47156525
1.771   96.55210114 96.38922119 96.47066117
1.772   96.53646088 96.39221954 96.46434021
1.773   96.54238892 96.39765167 96.4700203
1.774   96.55982208 96.4056778  96.48274994
1.775   96.56131744 96.41300201 96.48715973
1.776   96.54545593 96.37541199 96.46043396
1.777   96.54467773 96.41621399 96.48044586
1.778   96.56460571 96.3829422  96.47377396
1.779   96.55247498 96.38819122 96.4703331
1.78    96.54798889 96.42550659 96.48674774
1.781   96.5451355  96.42597198 96.48555374
1.782   96.55866241 96.39936066 96.47901154
1.783   96.55503845 96.40093231 96.47798538
1.784   96.53152466 96.42385101 96.47768784
1.785   96.57305908 96.40623474 96.48964691
1.786   96.55883789 96.41305542 96.48594666
1.787   96.56403351 96.45178223 96.50790787
1.788   96.55610657 96.41217041 96.48413849
1.789   96.55104828 96.42009735 96.48557282
1.79    96.5825882  96.45814514 96.52036667
1.791   96.57227325 96.38284302 96.47755814
1.792   96.52336121 96.47396851 96.49866486
1.793   96.57493591 96.45547485 96.51520538
1.794   96.5471344  96.40055084 96.47384262
1.795   96.54811859 96.48387146 96.51599503
1.796   96.59609985 96.44464111 96.52037048
1.797   96.49746704 96.4184494  96.45795822
1.798   96.60760498 96.44275665 96.52518082
1.799   96.53347778 96.43547058 96.48447418
1.8 96.58640289 96.45759583 96.52199936
1.801   96.55724335 96.43343353 96.49533844
1.802   96.56679535 96.4414444  96.50411988
1.803   96.55057526 96.4535141  96.50204468
1.804   96.57951355 96.44702911 96.51327133
1.805   96.58308411 96.46206665 96.52257538
1.806   96.54550171 96.46256256 96.50403214
1.807   96.58062744 96.46130371 96.52096558
1.808   96.58454895 96.44908905 96.516819
1.809   96.57711029 96.47116089 96.52413559
1.81    96.56856537 96.5020752  96.53532029
1.811   96.57198334 96.46860504 96.52029419
1.812   96.5825882  96.47176361 96.52717591
1.813   96.55857086 96.47853088 96.51855087
1.814   96.56163788 96.45462799 96.50813294
1.815   96.5891571  96.48251343 96.53583527
1.816   96.58735657 96.48953247 96.53844452
1.817   96.58422852 96.48334503 96.53378678
1.818   96.62734985 96.49715424 96.56225205
1.819   96.5880127  96.47659302 96.53230286
1.82    96.6324234  96.58753204 96.60997772
1.821   96.53769684 96.43138123 96.48453904
1.822   96.57933044 96.50762939 96.54347992
1.823   96.57880402 96.50030518 96.5395546
1.824   96.57201385 96.50362396 96.53781891
1.825   96.55513    96.49612427 96.52562714
1.826   96.58430481 96.49833679 96.5413208
1.827   96.58588409 96.49490356 96.54039383
1.828   96.57465363 96.52117157 96.5479126
1.829   96.56175232 96.51449585 96.53812409
1.83    96.57231903 96.51112366 96.54172135
1.831   96.58403778 96.54419708 96.56411743
1.832   96.56628418 96.53598022 96.5511322
1.833   96.55771637 96.51695251 96.53733444
1.834   96.58468628 96.52926636 96.55697632
1.835   96.56534576 96.49998474 96.53266525
1.836   96.53218079 96.55704498 96.54461289
1.837   96.6042099  96.50684357 96.55552674
1.838   96.58950806 96.52375031 96.55662919
1.839   96.57171631 96.54538727 96.55855179
1.84    96.56962585 96.52309418 96.54636002
1.841   96.5799408  96.52276611 96.55135346
1.842   96.58695984 96.52877045 96.55786515
1.843   96.58740997 96.54478455 96.56609726
1.844   96.59773254 96.53648376 96.56710815
1.845   96.59247589 96.5319519  96.5622139
1.846   96.59150696 96.54967499 96.57059098
1.847   96.58535767 96.5488739  96.56711579
1.848   96.58895111 96.54239655 96.56567383
1.849   96.59526825 96.5536499  96.57445908
1.85    96.60311127 96.56089783 96.58200455
1.851   96.58056641 96.5839386  96.58225251
1.852   96.58094788 96.55427551 96.5676117
1.853   96.58679962 96.56209564 96.57444763
1.854   96.57316589 96.57079315 96.57197952
1.855   96.597229   96.58381653 96.59052277
1.856   96.59341431 96.56669617 96.58005524
1.857   96.59690857 96.57414246 96.58552552
1.858   96.61408234 96.58338928 96.59873581
1.859   96.5790863  96.58340454 96.58124542
1.86    96.59367371 96.59030151 96.59198761
1.861   96.61008453 96.57774353 96.59391403
1.862   96.59152222 96.59586334 96.59369278
1.863   96.58055115 96.58242035 96.58148575
1.864   96.60458374 96.60253906 96.6035614
1.865   96.59286499 96.60677338 96.59981919
1.866   96.55406189 96.6071167  96.5805893
1.867   96.58473206 96.60207367 96.59340287
1.868   96.58016205 96.61506653 96.59761429
1.869   96.59276581 96.6235733  96.60816956
1.87    96.58276367 96.60811615 96.59543991
1.871   96.59479523 96.58197784 96.58838654
1.872   96.60469055 96.59363556 96.59916306
1.873   96.60437775 96.58804321 96.59621048
1.874   96.59654236 96.58714294 96.59184265
1.875   96.61607361 96.61904907 96.61756134
1.876   96.62054443 96.57601929 96.59828186
1.877   96.63052368 96.60678864 96.61865616
1.878   96.62728119 96.61452484 96.62090302
1.879   96.62275696 96.62433624 96.6235466
1.88    96.602211   96.60451508 96.60336304
1.881   96.60986328 96.63010406 96.61998367
1.882   96.60873413 96.63880157 96.62376785
1.883   96.57997131 96.59146881 96.58572006
1.884   96.59234619 96.64302826 96.61768723
1.885   96.60070038 96.65061188 96.62565613
1.886   96.58381653 96.64199066 96.6129036
1.887   96.58099365 96.63152313 96.60625839
1.888   96.5921936  96.63373566 96.61296463
1.889   96.584198   96.62637329 96.60528565
1.89    96.57161713 96.62068939 96.59615326
1.891   96.60758972 96.66184998 96.63471985
1.892   96.58796692 96.62221527 96.6050911
1.893   96.62130737 96.69190979 96.65660858
1.894   96.59170532 96.65213013 96.62191773
1.895   96.5745697  96.66136169 96.6179657
1.896   96.57462311 96.65086365 96.61274338
1.897   96.57926178 96.6408844  96.61007309
1.898   96.56755066 96.65692902 96.61223984
1.899   96.55612183 96.68926239 96.62269211
1.9 96.54927063 96.63999939 96.59463501
1.901   96.61277771 96.66162109 96.6371994
1.902   96.56309509 96.62596893 96.59453201
1.903   96.55964661 96.63781738 96.598732
1.904   96.5531311  96.62006378 96.58659744
1.905   96.5616684  96.6268158  96.5942421
1.906   96.5562973  96.64806366 96.60218048
1.907   96.57258606 96.63475037 96.60366822
1.908   96.55687714 96.64547729 96.60117722
1.909   96.57696533 96.6600647  96.61851502
1.91    96.5374527  96.68195343 96.60970307
1.911   96.59087372 96.65234375 96.62160874
1.912   96.56156921 96.64491272 96.60324097
1.913   96.56838989 96.64618683 96.60728836
1.914   96.55195618 96.67572021 96.6138382
1.915   96.59312439 96.61773682 96.60543061
1.916   96.56945801 96.64417267 96.60681534
1.917   96.55950165 96.65626526 96.60788346
1.918   96.57759857 96.67346191 96.62553024
1.919   96.573349   96.65084076 96.61209488
1.92    96.56083679 96.65820313 96.60951996
1.921   96.56503296 96.67008972 96.61756134
1.922   96.57201385 96.6805954  96.62630463
1.923   96.58454895 96.68167114 96.63311005
1.924   96.58509064 96.68953705 96.63731385
1.925   96.59830475 96.70779419 96.65304947
1.926   96.58390045 96.69274139 96.63832092
1.927   96.58792877 96.6918869  96.63990784
1.928   96.57794952 96.700737   96.63934326
1.929   96.60510254 96.70745087 96.65627671
1.93    96.57956696 96.70465851 96.64211274
1.931   96.58434296 96.70239258 96.64336777
1.932   96.60779572 96.70739746 96.65759659
1.933   96.59498596 96.69085693 96.64292145
1.934   96.59272003 96.7137146  96.65321732
1.935   96.56018066 96.7278595  96.64402008
1.936   96.57072449 96.74059296 96.65565873
1.937   96.60790253 96.73184204 96.66987229
1.938   96.60244751 96.71538544 96.65891648
1.939   96.59765625 96.71852875 96.6580925
1.94    96.59425354 96.7763443  96.68529892
1.941   96.59892273 96.75101471 96.67496872
1.942   96.59286499 96.74308777 96.66797638
1.943   96.60453796 96.75234985 96.67844391
1.944   96.60964203 96.74842072 96.67903138
1.945   96.59901428 96.76763153 96.68332291
1.946   96.61391449 96.7440033  96.6789589
1.947   96.59819794 96.77664948 96.68742371
1.948   96.60385132 96.77684784 96.69034958
1.949   96.6100235  96.76584625 96.68793488
1.95    96.60618591 96.76926422 96.68772507
1.951   96.58827972 96.8059082  96.69709396
1.952   96.6212616  96.76525879 96.6932602
1.953   96.576828   96.78860474 96.68271637
1.954   96.6132431  96.76158142 96.68741226
1.955   96.59459686 96.77897644 96.68678665
1.956   96.61844635 96.81180573 96.71512604
1.957   96.59770966 96.78142548 96.68956757
1.958   96.61416626 96.77388763 96.69402695
1.959   96.63478088 96.83986664 96.73732376
1.96    96.58136749 96.83581543 96.70859146
1.961   96.65324402 96.741539   96.69739151
1.962   96.62509155 96.82180023 96.72344589
1.963   96.58733368 96.89173889 96.73953629
1.964   96.63660431 96.78599548 96.7112999
1.965   96.63999939 96.80503845 96.72251892
1.966   96.63780975 96.85616302 96.74698639
1.967   96.58171082 96.81280518 96.697258
1.968   96.62997437 96.82341766 96.72669602
1.969   96.61054993 96.85843658 96.73449326
1.97    96.6138382  96.84994507 96.73189164
1.971   96.62485504 96.84503937 96.73494721
1.972   96.62231445 96.83895111 96.73063278
1.973   96.60857391 96.8259201  96.71724701
1.974   96.63661957 96.85951233 96.74806595
1.975   96.63357544 96.87477112 96.75417328
1.976   96.61959076 96.83553314 96.72756195
1.977   96.64348602 96.8782959  96.76089096
1.978   96.64134216 96.90548706 96.77341461
1.979   96.63660431 96.85500336 96.74580384
1.98    96.63787842 96.8972702  96.76757431
1.981   96.62054443 96.85375214 96.73714829
1.982   96.63723755 96.89836884 96.7678032
1.983   96.69405365 96.89977264 96.79691315
1.984   96.61354065 96.86064148 96.73709107
1.985   96.59854889 96.86977386 96.73416138
1.986   96.67111206 96.92734528 96.79922867
1.987   96.63659668 96.88145447 96.75902558
1.988   96.59944916 96.89308167 96.74626542
1.989   96.64629364 96.91999817 96.78314591
1.99    96.67953491 96.90566254 96.79259873
1.991   96.60436249 96.89118195 96.74777222
1.992   96.63674927 96.90457153 96.7706604
1.993   96.6849823  96.94926453 96.81712342
1.994   96.62158203 96.89682007 96.75920105
1.995   96.62401581 96.91223145 96.76812363
1.996   96.63949585 96.93275452 96.78612519
1.997   96.65841675 96.9480896  96.80325318
1.998   96.64321899 96.92618561 96.7847023
1.999   96.63677979 96.92948151 96.78313065
2   96.63864899 96.89965057 96.76914978
2.001   96.65299988 96.94255829 96.79777909
2.002   96.71307373 96.9545517  96.83381272
2.003   96.64253998 96.92719269 96.78486634
2.004   96.65986633 96.92234802 96.79110718
2.005   96.67250061 96.94869995 96.81060028
2.006   96.6786499  96.97348022 96.82606506
2.007   96.67476654 96.92922211 96.80199433
2.008   96.65917969 96.96012878 96.80965424
2.009   96.68773651 96.97608185 96.83190918
2.01    96.66753387 96.94441223 96.80597305
2.011   96.69975281 96.98654175 96.84314728
2.012   96.6809845  96.95675659 96.81887055
2.013   96.66304016 96.98660278 96.82482147
2.014   96.70053864 97.00330353 96.85192109
2.015   96.6918869  96.97599792 96.83394241
2.016   96.66035461 96.9899826  96.82516861
2.017   96.69550323 97.0109787  96.85324097
2.018   96.68006134 97.00139618 96.84072876
2.019   96.67946625 96.98545074 96.8324585
2.02    96.68543243 96.98715973 96.83629608
2.021   96.68722534 96.99095154 96.83908844
2.022   96.6891861  96.99185181 96.84051896
2.023   96.6772995  96.98742676 96.83236313
2.024   96.68230438 97.01073456 96.84651947
2.025   96.69827271 97.03115845 96.86471558
2.026   96.70243835 97.02036285 96.8614006
2.027   96.68842316 97.05184937 96.87013627
2.028   96.71073914 97.0147171  96.86272812
2.029   96.70414734 97.03839111 96.87126923
2.03    96.7066803  97.03268433 96.86968232
2.031   96.70423889 97.05768585 96.88096237
2.032   96.68842316 97.03198242 96.86020279
2.033   96.73542786 97.05157471 96.89350129
2.034   96.69003296 97.04893494 96.86948395
2.035   96.70432281 97.0216217  96.86297226
2.036   96.71572876 97.07200623 96.8938675
2.037   96.709198   97.05315399 96.881176
2.038   96.68813324 97.01450348 96.85131836
2.039   96.74514771 97.09708405 96.92111588
2.04    96.69565582 97.06878662 96.88222122
2.041   96.68643188 97.01016998 96.84830093
2.042   96.74700165 97.116745   96.93187333
2.043   96.723526   97.07057953 96.89705277
2.044   96.66422272 97.0508728  96.85754776
2.045   96.75102234 97.13754272 96.94428253
2.046   96.71572113 97.08782959 96.90177536
2.047   96.7095108  97.081604   96.8955574
2.048   96.72644043 97.09411621 96.91027832
2.049   96.71648407 97.09361267 96.90504837
2.05    96.71315002 97.08141327 96.89728165
2.051   96.73120117 97.10100555 96.91610336
2.052   96.72305298 97.10106659 96.91205979
2.053   96.71599579 97.08550262 96.90074921
2.054   96.71879578 97.09302521 96.9059105
2.055   96.72556305 97.14929962 96.93743134
2.056   96.74582672 97.0613327  96.90357971
2.057   96.69725037 97.098526   96.89788819
2.058   96.71561432 97.15054321 96.93307877
2.059   96.7674408  97.08069611 96.92406846
2.06    96.67762756 97.12578583 96.9017067
2.061   96.72225189 97.14333344 96.93279267
2.062   96.77255249 97.11551666 96.94403458
2.063   96.69578552 97.12419891 96.90999222
2.064   96.72091675 97.15445709 96.93768692
2.065   96.76570892 97.15378571 96.95974732
2.066   96.70281982 97.11407471 96.90844727
2.067   96.72220612 97.17411041 96.94815827
2.068   96.79629517 97.15769958 96.97699738
2.069   96.70896912 97.1302948  96.91963196
2.07    96.72180176 97.16996765 96.94588471
2.071   96.73765564 97.15174866 96.94470215
2.072   96.75193787 97.16756439 96.95975113
2.073   96.75308228 97.16970062 96.96139145
2.074   96.74260712 97.1640625  96.95333481
2.075   96.7307663  97.14751434 96.93914032
2.076   96.76264954 97.17163086 96.9671402
2.077   96.70420837 97.18309784 96.94365311
2.078   96.77024078 97.15874481 96.9644928
2.079   96.74021149 97.17858124 96.95939637
2.08    96.7075882  97.20534515 96.95646668
2.081   96.77703857 97.18564606 96.98134232
2.082   96.76997375 97.18299866 96.97648621
2.083   96.72512054 97.17237854 96.94874954
2.084   96.77324677 97.20528412 96.98926545
2.085   96.7744751  97.19916534 96.98682022
2.086   96.72248077 97.19185638 96.95716858
2.087   96.79872131 97.22926331 97.01399231
2.088   96.77362061 97.2122345  96.99292756
2.089   96.71386719 97.22509766 96.96948243
2.09    96.79407501 97.19490051 96.99448776
2.091   96.77252197 97.21205139 96.99228668
2.092   96.77335358 97.23638916 97.00487137
2.093   96.66850281 97.21695709 96.94272995
2.094   96.81500244 97.19629669 97.00564957
2.095   96.77297211 97.21672821 96.99485016
2.096   96.76187897 97.22842407 96.99515152
2.097   96.7374115  97.22694397 96.98217774
2.098   96.76711273 97.23152924 96.99932099
2.099   96.75350952 97.25544739 97.00447846
2.1 96.75736237 97.24285889 97.00011063
2.101   96.78170013 97.2377243  97.00971222
2.102   96.77198029 97.24015808 97.00606919
2.103   96.76647949 97.25027466 97.00837708
2.104   96.78414154 97.242836   97.01348877
2.105   96.77168274 97.26496124 97.01832199
2.106   96.75741577 97.26678467 97.01210022
2.107   96.78297424 97.26724243 97.02510834
2.108   96.79774475 97.26612854 97.03193665
2.109   96.74991608 97.26389313 97.00690461
2.11    96.78768158 97.25424957 97.02096558
2.111   96.79673004 97.28448486 97.04060745
2.112   96.73779297 97.26773071 97.00276184
2.113   96.79863739 97.25883484 97.02873612
2.114   96.7997818  97.29430389 97.04704285
2.115   96.74674988 97.2855835  97.01616669
2.116   96.81314087 97.26724243 97.04019165
2.117   96.77287292 97.27985382 97.02636337
2.118   96.7616272  97.31654358 97.03908539
2.119   96.78451538 97.2818222  97.03316879
2.12    96.79496002 97.28429413 97.03962708
2.121   96.78727722 97.30187225 97.04457474
2.122   96.78839111 97.33001709 97.0592041
2.123   96.78784943 97.30978394 97.04881669
2.124   96.79480743 97.31840515 97.05660629
2.125   96.77212524 97.32642365 97.04927445
2.126   96.79756165 97.32132721 97.05944443
2.127   96.80999756 97.29990387 97.05495072
2.128   96.77898407 97.3572464  97.06811524
2.129   96.76815033 97.26995087 97.0190506
2.13    96.81217194 97.32781219 97.06999207
2.131   96.78509521 97.37710571 97.08110046
2.132   96.72590637 97.27151489 96.99871063
2.133   96.84783173 97.33572388 97.09177781
2.134   96.79547119 97.37527466 97.08537293
2.135   96.74372864 97.26113892 97.00243378
2.136   96.77728271 97.33657837 97.05693054
2.137   96.8764801  97.39929199 97.13788605
2.138   96.80712128 97.36177063 97.08444596
2.139   96.80188751 97.33888245 97.07038498
2.14    96.80152893 97.33924103 97.07038498
2.141   96.78987885 97.31803894 97.0539589
2.142   96.81474304 97.3561554  97.08544922
2.143   96.81229401 97.36039734 97.08634568
2.144   96.8057251  97.38152313 97.09362412
2.145   96.80541992 97.35662842 97.08102417
2.146   96.8150177  97.37870789 97.0968628
2.147   96.81019592 97.39667511 97.10343552
2.148   96.80081177 97.34101868 97.07091523
2.149   96.81350708 97.38391876 97.09871292
2.15    96.7936554  97.39027405 97.09196473
2.151   96.8094635  97.34677887 97.07812119
2.152   96.80397034 97.39095306 97.0974617
2.153   96.81214905 97.41864014 97.1153946
2.154   96.80763245 97.33662415 97.0721283
2.155   96.79319763 97.38596344 97.08958054
2.156   96.80942535 97.43089294 97.12015915
2.157   96.80460358 97.4646759  97.13463974
2.158   96.79833221 97.3890686  97.09370041
2.159   96.80866241 97.4001236  97.10439301
2.16    96.82085419 97.40731049 97.11408234
2.161   96.81056976 97.40010834 97.10533905
2.162   96.82165527 97.41716003 97.11940765
2.163   96.81970978 97.43212128 97.12591553
2.164   96.81607819 97.42315674 97.11961747
2.165   96.81884003 97.42370605 97.12127304
2.166   96.81157684 97.41989136 97.1157341
2.167   96.82778168 97.41703796 97.12240982
2.168   96.82244873 97.41436005 97.11840439
2.169   96.8303833  97.42041016 97.12539673
2.17    96.81428528 97.43981934 97.12705231
2.171   96.83758545 97.43769836 97.13764191
2.172   96.83929443 97.43418121 97.13673782
2.173   96.82549286 97.44284821 97.13417054
2.174   96.84117126 97.41601563 97.12859345
2.175   96.820755   97.44818878 97.13447189
2.176   96.83979034 97.40731049 97.12355042
2.177   96.8195343  97.44517517 97.13235474
2.178   96.86808777 97.44529724 97.15669251
2.179   96.80108643 97.44345093 97.12226868
2.18    96.87937164 97.43141174 97.15539169
2.181   96.82655334 97.50914764 97.16785049
2.182   96.86499786 97.44515228 97.15507507
2.183   96.81860352 97.54151154 97.18005753
2.184   96.88869476 97.4826355  97.18566513
2.185   96.90201569 97.53591156 97.21896363
2.186   96.85250854 97.48582458 97.16916656
2.187   96.8686676  97.50406647 97.18636704
2.188   96.85116577 97.49279785 97.17198181
2.189   96.85552979 97.44450378 97.15001679
2.19    96.84235382 97.48589325 97.16412354
2.191   96.84078217 97.4508667  97.14582444
2.192   96.83720398 97.47151184 97.15435791
2.193   96.85066223 97.44836426 97.14951325
2.194   96.83073425 97.46598053 97.14835739
2.195   96.84211731 97.45439148 97.1482544
2.196   96.81196594 97.4830246  97.14749527
2.197   96.80065918 97.44145203 97.12105561
2.198   96.86700439 97.47991943 97.17346191
2.199   96.81601715 97.4677124  97.14186478
2.2 96.82289124 97.45517731 97.13903428
2.201   96.81547546 97.49544525 97.15546036
2.202   96.83881378 97.4702301  97.15452194
2.203   96.82466125 97.48661041 97.15563583
2.204   96.84373474 97.48784637 97.16579056
2.205   96.80459595 97.50580597 97.15520096
2.206   96.81719208 97.51528168 97.16623688
2.207   96.80602264 97.51970673 97.16286469
2.208   96.81917572 97.51332092 97.16624832
2.209   96.81506348 97.51676941 97.16591645
2.21    96.83732605 97.47748566 97.15740586
2.211   96.81404114 97.47637939 97.14521027
2.212   96.8133316  97.48871613 97.15102387
2.213   96.81139374 97.49960327 97.15549851
2.214   96.82289124 97.4755249  97.14920807
2.215   96.80182648 97.49766541 97.14974595
2.216   96.80841827 97.47767639 97.14304733
2.217   96.80696106 97.48882294 97.147892
2.218   96.81179047 97.47055054 97.14117051
2.219   96.81044006 97.5059433  97.15819168
2.22    96.80680084 97.48678589 97.14679337
2.221   96.80771637 97.48268127 97.14519882
2.222   96.83148193 97.47222137 97.15185165
2.223   96.81594849 97.49336243 97.15465546
2.224   96.83311462 97.50533295 97.16922379
2.225   96.83905792 97.47949219 97.15927506
2.226   96.8309021  97.51243591 97.17166901
2.227   96.81496429 97.50650787 97.16073608
2.228   96.82866669 97.51712799 97.17289734
2.229   96.8157196  97.49022675 97.15297318
2.23    96.82772064 97.52498627 97.17635346
2.231   96.81417084 97.51751709 97.16584397
2.232   96.83402252 97.51144409 97.17273331
2.233   96.80935669 97.515625   97.16249085
2.234   96.83030701 97.52566528 97.17798615
2.235   96.82548523 97.53895569 97.18222046
2.236   96.81800079 97.52487183 97.17143631
2.237   96.81436157 97.53988647 97.17712402
2.238   96.83279419 97.54663849 97.18971634
2.239   96.82103729 97.52529144 97.17316437
2.24    96.83187103 97.51397705 97.17292404
2.241   96.81354523 97.55141449 97.18247986
2.242   96.80335236 97.52095032 97.16215134
2.243   96.82155609 97.52024078 97.17089844
2.244   96.83326721 97.53983307 97.18655014
2.245   96.82093048 97.53073883 97.17583466
2.246   96.81390381 97.53512573 97.17451477
2.247   96.83813477 97.55243683 97.1952858
2.248   96.82095337 97.55488586 97.18791962
2.249   96.82325745 97.53839111 97.18082428
2.25    96.80853271 97.5574646  97.18299866
2.251   96.82774353 97.55579376 97.19176865
2.252   96.8190155  97.56071472 97.18986511
2.253   96.83480072 97.57623291 97.20551682
2.254   96.83211517 97.55675507 97.19443512
2.255   96.81376648 97.53968048 97.17672348
2.256   96.84360504 97.54885101 97.19622803
2.257   96.8139267  97.57461548 97.19427109
2.258   96.8332901  97.55574036 97.19451523
2.259   96.83760071 97.53161621 97.18460846
2.26    96.83828735 97.55287933 97.19558334
2.261   96.81607056 97.55281067 97.18444062
2.262   96.84427643 97.55191803 97.19809723
2.263   96.8301239  97.56402588 97.19707489
2.264   96.83466339 97.55226135 97.19346237
2.265   96.83982849 97.54415894 97.19199372
2.266   96.82637787 97.57255554 97.19946671
2.267   96.83332825 97.56743622 97.20038224
2.268   96.83320618 97.57035065 97.20177842
2.269   96.84016418 97.59326935 97.21671677
2.27    96.84719086 97.5719223  97.20955658
2.271   96.84205627 97.61527252 97.2286644
2.272   96.8509903  97.58324432 97.21711731
2.273   96.86373901 97.58213043 97.22293472
2.274   96.85868835 97.58057404 97.2196312
2.275   96.86798096 97.59140015 97.22969056
2.276   96.83950806 97.61132813 97.2254181
2.277   96.87558746 97.58215332 97.22887039
2.278   96.85990906 97.58389282 97.22190094
2.279   96.84939575 97.62153625 97.235466
2.28    96.84484863 97.58756256 97.2162056
2.281   96.8539505  97.60811615 97.23103333
2.282   96.86686707 97.6121521  97.23950959
2.283   96.84090424 97.61562347 97.22826386
2.284   96.84036255 97.58552551 97.21294403
2.285   96.85667419 97.59654236 97.22660828
2.286   96.86777496 97.62755585 97.24766541
2.287   96.85736847 97.61730194 97.23733521
2.288   96.84606934 97.61585999 97.23096467
2.289   96.86290741 97.61579132 97.23934937
2.29    96.86776733 97.64966583 97.25871658
2.291   96.85166168 97.65705109 97.25435639
2.292   96.86920166 97.62207031 97.24563599
2.293   96.86497498 97.63611603 97.25054551
2.294   96.86801147 97.65246582 97.26023865
2.295   96.8598938  97.63354492 97.24671936
2.296   96.86169434 97.626091   97.24389267
2.297   96.86016846 97.65596008 97.25806427
2.298   96.85168457 97.65229034 97.25198746
2.299   96.83995819 97.6367569  97.23835755
2.3 96.85887909 97.64964294 97.25426102
2.301   96.86965179 97.63574219 97.25269699
2.302   96.84928894 97.64474487 97.24701691
2.303   96.85207367 97.62451172 97.2382927
2.304   96.8747406  97.64009094 97.25741577
2.305   96.86128998 97.63082123 97.24605561
2.306   96.86473846 97.63036346 97.24755096
2.307   96.85930634 97.64585114 97.25257874
2.308   96.89591217 97.65860748 97.27725983
2.309   96.89067078 97.64068604 97.26567841
2.31    96.87918854 97.65525818 97.26722336
2.311   96.8939743  97.64431    97.26914215
2.312   96.8943634  97.66854095 97.28145218
2.313   96.91461945 97.64626312 97.28044129
2.314   96.89933014 97.67617798 97.28775406
2.315   96.88726044 97.66662598 97.27694321
2.316   96.91918945 97.68867493 97.30393219
2.317   96.90608978 97.64925385 97.27767182
2.318   96.92261505 97.64714813 97.28488159
2.319   96.94181061 97.67107391 97.30644226
2.32    96.96042633 97.61547852 97.28795243
2.321   96.93297577 97.63495636 97.28396607
2.322   96.91365051 97.70661926 97.31013489
2.323   96.91306305 97.62289429 97.26797867
2.324   96.87493134 97.67459869 97.27476502
2.325   96.91950989 97.66318512 97.29134751
2.326   96.87819672 97.63983917 97.25901795
2.327   96.92293549 97.64331818 97.28312684
2.328   96.90274048 97.65475464 97.27874756
2.329   96.91792297 97.68996429 97.30394363
2.330   96.90612793 97.69815826 97.3021431
2.331   96.93676758 97.69631195 97.31653977
2.332   96.91356659 97.66445923 97.28901291
2.333   96.91500854 97.67660522 97.29580688
2.334   96.92456818 97.64289093 97.28372956
2.335   96.97686005 97.7482605  97.36256028
2.336   96.9611969  97.75444031 97.35781861
2.337   96.95545197 97.71291351 97.33418274
2.338   96.96011353 97.74020386 97.3501587
2.339   96.94982147 97.72446442 97.33714295
2.340   96.94801331 97.71201324 97.33001328
2.341   96.95245361 97.72260284 97.33752823
2.342   96.93839264 97.73582458 97.33710861
2.343   96.93728638 97.7264328  97.33185959
2.344   96.94239807 97.71703339 97.32971573
2.345   96.93509674 97.72670746 97.3309021
2.346   96.94171906 97.70495605 97.32333756
2.347   96.9325943  97.70189667 97.31724549
2.348   96.94074249 97.71778107 97.32926178
2.349   96.95079041 97.68837738 97.3195839
2.350   96.92086792 97.70331573 97.31209183
2.351   96.96750641 97.7440567  97.35578156
2.352   96.9568634  97.76345825 97.36016083
2.353   96.97569275 97.71813202 97.34691239
2.354   96.97640991 97.75837708 97.3673935
2.355   96.97350311 97.74242401 97.35796356
2.356   96.96234131 97.71825409 97.3402977
2.357   96.98136139 97.77067566 97.37601853
2.358   96.98788452 97.73296356 97.36042404
2.359   96.98105621 97.81473541 97.39789581
2.360   96.99848175 97.72364807 97.36106491
2.361   96.98680878 97.75114441 97.3689766
2.362   96.97953033 97.73910522 97.35931778
2.363   96.96057892 97.76126099 97.36091996
2.364   96.98501587 97.80123138 97.39312363
2.365   96.98332214 97.71821594 97.35076904
2.366   96.97531128 97.75356293 97.36443711
2.367   96.94911194 97.73765564 97.34338379
2.368   96.98336792 97.71498108 97.3491745
2.369   96.96133423 97.74949646 97.35541535
2.370   96.95641327 97.7603302  97.35837174
2.371   96.96502686 97.74855804 97.35679245
2.372   96.96160889 97.7144928  97.33805085
2.373   96.9859848  97.73648071 97.36123276
2.374   96.95329285 97.73215485 97.34272385
2.375   96.98143768 97.77515411 97.3782959
2.376   96.99036407 97.79772186 97.39404297
2.377   96.99622345 97.75856781 97.37739563
2.378   96.99195099 97.78185272 97.38690186
2.379   97.01384735 97.76556396 97.38970566
2.380   97.02571869 97.79919434 97.41245652
2.381   96.99938965 97.75700378 97.37819672
2.382   97.01335144 97.81734467 97.41534806
2.383   97.0152359  97.79085541 97.40304566
2.384   97.02262878 97.81459808 97.41861343
2.385   97.02519989 97.82052612 97.42286301
2.386   96.99436188 97.82964325 97.41200257
2.387   97.01808929 97.80493164 97.41151047
2.388   97.00458527 97.79753876 97.40106202
2.389   96.9900589  97.76421356 97.37713623
2.390   96.98485565 97.79624939 97.39055252
2.391   96.98626709 97.77453613 97.38040161
2.392   96.97101593 97.79283905 97.38192749
2.393   96.95921326 97.77867126 97.36894226
2.394   96.98944092 97.76567841 97.37755967
2.395   96.98495483 97.76550293 97.37522888
2.396   96.97427368 97.78258514 97.37842941
2.397   96.98204041 97.74119568 97.36161805
2.398   96.9879303  97.78941345 97.38867188
2.399   97.00370789 97.76874542 97.38622666
2.400   96.99511719 97.779953   97.3875351
2.401   97.01004791 97.80149841 97.40577316
2.402   97.01393127 97.80705261 97.41049194
2.403   97.0241394  97.81150818 97.41782379
2.404   97.01753235 97.84992981 97.43373108
2.405   97.02352142 97.82345581 97.42348862
2.406   97.03671265 97.83604431 97.43637848
2.407   97.02481842 97.80174255 97.41328049
2.408   97.03376007 97.89110565 97.46243286
2.409   97.03041077 97.82400513 97.42720795
2.410   97.01731873 97.84535217 97.43133545
2.411   97.03212738 97.8015213  97.41682434
2.412   96.99258423 97.84121704 97.41690064
2.413   97.0186615  97.81787109 97.4182663
2.414   97.01376343 97.82273865 97.41825104
2.415   97.00710297 97.81956482 97.4133339
2.416   97.00027466 97.83380127 97.41703797
2.417   96.99490356 97.81509399 97.40499878
2.418   96.99513245 97.82113647 97.40813446
2.419   96.98674011 97.83032227 97.40853119
2.420   96.991745   97.84621429 97.41897965
2.421   96.99602509 97.81008148 97.40305329
2.422   97.00262451 97.82817078 97.41539765
2.423   96.99765778 97.82839966 97.41302872
2.424   97.00485229 97.85116577 97.42800903
2.425   97.02346039 97.85751343 97.44048691
2.426   97.00942993 97.83418274 97.42180634
2.427   97.02978516 97.86322021 97.44650269
2.428   97.04057312 97.85166168 97.4461174
2.429   97.04532623 97.86089325 97.45310974
2.430   97.03395844 97.88393402 97.45894623
2.431   97.03520203 97.8653717  97.45028687
2.432   97.05569458 97.86299896 97.45934677
2.433   97.04253387 97.85726929 97.44990158
2.434   97.03149414 97.8862915  97.45889282
2.435   97.03670502 97.90357208 97.47013855
2.436   97.03727722 97.88928986 97.46328354
2.437   97.01610565 97.85331726 97.43471146
2.438   97.02422333 97.91836548 97.47129441
2.439   97.016922   97.87525177 97.44608689
2.440   97.01501465 97.83062744 97.42282105
2.441   97.00881958 97.88417816 97.44649887
2.442   96.98732758 97.88361359 97.43547059
2.443   97.02446747 97.88697052 97.455719
2.444   96.99521637 97.9129715  97.45409394
2.445   97.00561523 97.85784149 97.43172836
2.446   96.97839355 97.88762665 97.4330101
2.447   97.00351715 97.858078   97.43079758
2.448   97.00358582 97.91023254 97.45690918
2.449   96.98047638 97.86650848 97.42349243
2.450   97.00683594 97.8835144  97.44517517
2.451   97.02991486 97.89955139 97.46473313
2.452   97.0196228  97.90965271 97.46463776
2.453   97.03508759 97.92195892 97.47852326
2.454   97.04097748 97.92149353 97.48123551
2.455   97.04652405 97.91326904 97.47989655
2.456   97.04945374 97.93945313 97.49445344
2.457   97.0321579  97.9143219  97.4732399
2.458   97.05706024 97.91059875 97.4838295
2.459   97.04727173 97.92040253 97.48383713
2.460   97.04016876 97.90651703 97.4733429
2.461   97.04099274 97.97166443 97.50632859
2.462   97.05548859 97.88446045 97.46997452
2.463   97.03004456 97.90800476 97.46902466
2.464   97.02151489 97.90866089 97.46508789
2.465   97.03926849 97.89685822 97.46806336
2.466   97.02893066 97.92745209 97.47819138
2.467   97.01404572 97.9025116  97.45827866
2.468   96.99969482 97.90808105 97.45388794
2.469   97.01461792 97.92764282 97.47113037
2.470   97.00577545 97.88970184 97.44773865
2.471   96.99778748 97.8748703  97.43632889
2.472   96.99349976 97.89528656 97.44439316
2.473   97.00566101 97.87889099 97.442276
2.474   96.99629974 97.88520813 97.44075394
2.475   96.99840546 97.8998642  97.44913483
2.476   96.99417877 97.91470337 97.45444107
2.477   97.01764679 97.90537262 97.46150971
2.478   97.03170776 97.92198181 97.47684479
2.479   97.0300827  97.92438507 97.47723389
2.480   97.04737091 97.95805359 97.50271225
2.481   97.06460571 97.92192078 97.49326325
2.482   97.06125641 97.94676208 97.50400925
2.483   97.05783081 97.9866333  97.52223206
2.484   97.07949066 97.92841339 97.50395203
2.485   97.04217529 97.94763947 97.49490738
2.486   97.04517365 97.95253754 97.4988556
2.487   97.04233551 97.97644043 97.50938797
2.488   97.04125214 97.96755219 97.50440217
2.489   97.04647064 97.94172668 97.49409866
2.490   97.01800537 97.96303558 97.49052048
2.491   97.05387115 97.97768402 97.51577759
2.492   97.03690338 97.94908905 97.49299622
2.493   97.00588989 97.93778992 97.47183991
2.494   97.00108337 97.95028687 97.47568512
2.495   97.03536987 97.9238205  97.47959519
2.496   97.01073456 97.88809967 97.44941712
2.497   96.98692322 97.96004486 97.47348404
2.498   96.99864197 97.9549408  97.47679139
2.499   97.00514984 97.97639465 97.49077225
2.500   96.98735809 98.03939056 97.51337433
2.502   96.9424 97.9232 97.4328
2.509   96.9571 97.9277 97.4424
2.517   96.9448 97.9423 97.44355
2.525   96.9401 97.9732 97.45665
2.533   96.9252 97.9865 97.45585
2.540   96.9471 97.9607 97.4539
2.548   96.9357 97.9782 97.45695
2.556   96.9368 98.0112 97.474
2.563   96.9223 98.0315 97.4769
2.571   96.9124 98.0128 97.4626
2.579   96.9205 98.0471 97.4838
2.587   96.8965 98.0496 97.47305
2.594   96.7626 97.9636 97.3631
2.602   96.825  97.9944 97.4097
2.610   96.907  98.0824 97.4947
2.617   96.7844 98.0379 97.41115
2.625   96.8425 98.0373 97.4399
2.633   96.8714 98.0914 97.4814
2.641   96.8437 98.0477 97.4457
2.648   96.873  98.0896 97.4813
2.656   96.8525 98.0861 97.4693
2.664   96.7189 97.9781 97.3485
2.672   96.7812 98.0931 97.43715
2.679   96.7427 98.1039 97.4233
2.687   96.6958 98.0303 97.36305
2.695   96.5157 97.9281 97.2219
2.702   96.3373 97.8238 97.08055
2.710   95.8913 97.5896 96.74045
2.718   95.4131 97.2638 96.33845
2.726   94.8427 96.9575 95.9001
2.733   94.2123 96.5281 95.3702
2.741   93.5545 96.1503 94.8524
2.749   93.002  95.683  94.3425
2.756   92.4367 95.2726 93.85465
2.764   91.8975 94.8516 93.37455
2.772   91.4531 94.5095 92.9813
2.780   90.9957 94.171  92.58335
2.787   90.6077 93.8596 92.23365
2.795   90.2816 93.6266 91.9541
2.803   89.9804 93.3788 91.6796
2.811   89.767  93.2546 91.5108
2.818   89.5507 93.0828 91.31675
2.826   89.3889 92.9611 91.175
2.834   89.2089 92.8499 91.0294
2.841   89.0765 92.7805 90.9285
2.849   88.9277 92.6811 90.8044
2.857   88.8215 92.6162 90.71885
2.865   88.7109 92.5638 90.63735
2.872   88.6344 92.5204 90.5774
2.880   88.5557 92.4879 90.5218
2.888   88.5167 92.4713 90.494
2.895   88.4763 92.471  90.47365
2.903   88.427  92.4481 90.43755
2.911   88.4101 92.4468 90.42845
2.919   88.391  92.4728 90.4319
2.926   88.4077 92.4893 90.4485
2.934   88.4273 92.5285 90.4779
2.942   88.46   92.5697 90.51485
2.950   88.5085 92.6317 90.5701
2.957   88.5755 92.6897 90.6326
2.965   88.6476 92.7371 90.69235
2.973   88.7255 92.814  90.76975
2.980   88.8142 92.9045 90.85935
2.988   88.9204 92.9658 90.9431
2.996   89.0173 93.0481 91.0327
3.004   89.1135 93.1459 91.1297
3.011   89.2171 93.243  91.23005
3.019   89.3298 93.3311 91.33045
3.027   89.4484 93.4306 91.4395
3.034   89.5478 93.527  91.5374
3.042   89.6552 93.6119 91.63355
3.050   89.7597 93.7028 91.73125
3.058   89.8918 93.7943 91.84305
3.065   89.9808 93.8829 91.93185
3.073   90.0824 93.9671 92.02475
3.081   90.2065 94.0268 92.11665
3.088   90.3114 94.1285 92.21995
3.096   90.4074 94.2238 92.3156
3.104   90.5258 94.3013 92.41355
3.112   90.65   94.3988 92.5244
3.119   90.7821 94.5008 92.64145
3.127   90.8923 94.5835 92.7379
3.135   91.019  94.6718 92.8454
3.143   91.143  94.7728 92.9579
3.150   91.2909 94.8543 93.0726
3.158   91.4068 94.9524 93.1796
3.166   91.5433 95.0333 93.2883
3.173   91.6543 95.1368 93.39555
3.181   91.788  95.2197 93.50385
3.189   91.9027 95.2975 93.6001
3.197   92.0266 95.3922 93.7094
3.204   92.1458 95.4821 93.81395
3.212   92.2749 95.5759 93.9254
3.220   92.3912 95.6424 94.0168
3.227   92.4984 95.7418 94.1201
3.235   92.6322 95.8131 94.22265
3.243   92.7332 95.9002 94.3167
3.251   92.846  95.9758 94.4109
3.258   92.9514 96.0431 94.49725
3.266   93.0419 96.1229 94.5824
3.274   93.161  96.1973 94.67915
3.282   93.2603 96.2573 94.7588
3.289   93.3514 96.3351 94.84325
3.297   93.4533 96.3805 94.9169
3.305   93.5501 96.4601 95.0051
3.312   93.6422 96.517  95.0796
3.320   93.7287 96.5883 95.1585
3.328   93.8054 96.6462 95.2258
3.336   93.893  96.7063 95.29965
3.343   93.9672 96.7555 95.36135
3.351   94.0482 96.8223 95.43525
3.359   94.138  96.8758 95.5069
3.366   94.2187 96.9044 95.56155
3.374   94.279  96.9512 95.6151
3.382   94.3313 96.9935 95.6624
3.390   94.4099 97.0469 95.7284
3.397   94.4726 97.0885 95.78055
3.405   94.5248 97.1399 95.83235
3.413   94.5964 97.1767 95.88655
3.421   94.6603 97.2341 95.9472
3.428   94.7361 97.2804 96.00825
3.436   94.8041 97.341  96.07255
3.444   94.8434 97.3604 96.1019
3.451   94.9145 97.4083 96.1614
3.459   94.9671 97.4594 96.21325
3.467   95.0124 97.4919 96.25215
3.475   95.0799 97.5208 96.30035
3.482   95.1324 97.555  96.3437
3.490   95.1695 97.5807 96.3751
3.498   95.2351 97.6313 96.4332
3.505   95.2777 97.6686 96.47315
3.513   95.3339 97.7098 96.52185
3.521   95.3844 97.7444 96.5644
3.529   95.4261 97.7704 96.59825
3.536   95.4531 97.8    96.62655
3.544   95.501  97.8319 96.66645
3.552   95.5462 97.8483 96.69725
3.559   95.5848 97.8811 96.73295
3.567   95.6146 97.8995 96.75705
3.575   95.6616 97.9225 96.79205
3.583   95.7041 97.9537 96.8289
3.590   95.7356 97.9598 96.8477
3.598   95.761  98.0111 96.88605
3.606   95.7914 98.0227 96.90705
3.614   95.8262 98.0288 96.9275
3.621   95.8541 98.0566 96.95535
3.629   95.874  98.0828 96.9784
3.637   95.9044 98.1073 97.00585
3.644   95.9372 98.1204 97.0288
3.652   95.9583 98.1419 97.0501
3.660   95.9741 98.1572 97.06565
3.668   96.0096 98.18   97.0948
3.675   96.0447 98.1879 97.1163
3.683   96.0783 98.2121 97.1452
3.691   96.088  98.2253 97.15665
3.698   96.1147 98.2364 97.17555
3.706   96.1301 98.2609 97.1955
3.714   96.1471 98.2727 97.2099
3.722   96.1614 98.2869 97.22415
3.729   96.1799 98.3068 97.24335
3.737   96.2033 98.3172 97.26025
3.745   96.2202 98.3164 97.2683
3.753   96.2342 98.3349 97.28455
3.760   96.2552 98.3402 97.2977
3.768   96.2568 98.3613 97.30905
3.776   96.2704 98.3704 97.3204
3.783   96.2918 98.3824 97.3371
3.791   96.3059 98.3953 97.3506
3.799   96.329  98.4074 97.3682
3.807   96.3267 98.4109 97.3688
3.814   96.3476 98.4263 97.38695
3.822   96.3665 98.431  97.39875
3.830   96.3759 98.4381 97.407
3.837   96.383  98.4509 97.41695
3.845   96.3865 98.4535 97.42
3.853   96.3967 98.4591 97.4279
3.861   96.4155 98.4663 97.4409
3.868   96.4214 98.4885 97.45495
3.876   96.4275 98.4918 97.45965
3.884   96.4391 98.4824 97.46075
3.891   96.4494 98.4983 97.47385
3.899   96.4607 98.5152 97.48795
3.907   96.466  98.5132 97.4896
3.915   96.4761 98.5314 97.50375
3.922   96.4871 98.5474 97.51725
3.930   96.4946 98.5485 97.52155
3.938   96.5035 98.546  97.52475
3.946   96.5074 98.5484 97.5279
3.953   96.5041 98.5551 97.5296
3.961   96.505  98.5641 97.53455
3.969   96.5114 98.5646 97.538
3.976   96.5045 98.5598 97.53215
3.984   96.5014 98.5693 97.53535
3.992   96.5031 98.5805 97.5418
4.000   96.4998 98.5983 97.54905
4.007   96.4937 98.6036 97.54865
4.015   96.5019 98.6021 97.552
4.023   96.5137 98.6037 97.5587
4.030   96.5028 98.6064 97.5546
4.038   96.4953 98.62   97.55765
4.046   96.5155 98.6217 97.5686
4.054   96.5163 98.6249 97.5706
4.061   96.5171 98.6259 97.5715
4.069   96.5151 98.6222 97.56865
4.077   96.5112 98.629  97.5701
4.085   96.5274 98.6392 97.5833
4.092   96.5387 98.6369 97.5878
4.100   96.5346 98.638  97.5863
4.108   96.5419 98.646  97.59395
4.115   96.5594 98.6471 97.60325
4.123   96.552  98.6502 97.6011
4.131   96.5482 98.652  97.6001
4.139   96.5617 98.6641 97.6129
4.146   96.5755 98.6746 97.62505
4.154   96.574  98.6804 97.6272
4.162   96.5821 98.6784 97.63025
4.169   96.5872 98.6884 97.6378
4.177   96.5788 98.693  97.6359
4.185   96.5832 98.6816 97.6324
4.193   96.618  98.6914 97.6547
4.200   96.6792 98.7331 97.70615
4.208   96.7832 98.7946 97.7889
4.216   96.8883 98.8893 97.8888
4.224   97.006  99.054  98.03
4.231   97.1165 99.1082 98.11235
4.239   97.1776 99.1802 98.1789
4.247   97.1623 99.1764 98.16935
4.254   97.0232 99.0304 98.0268
4.262   96.9352 98.9358 97.9355
4.270   97.0742 98.9768 98.0255
4.278   97.1159 98.9927 98.0543
4.285   97.0065 99.0156 98.01105
4.293   97.0052 98.995  98.0001
4.301   97.0372 98.9678 98.0025
4.308   96.9866 98.9498 97.9682
4.316   96.878  98.9114 97.8947
4.324   96.8367 98.8869 97.8618
4.332   96.8269 98.8752 97.85105
4.339   96.8023 98.8338 97.81805
4.347   96.7449 98.797  97.77095
4.355   96.7011 98.779  97.74005
4.362   96.6804 98.7633 97.72185
4.370   96.6578 98.7584 97.7081
4.378   96.6469 98.7554 97.70115
4.386   96.6194 98.7547 97.68705
4.393   96.6142 98.7416 97.6779
4.401   96.6361 98.7509 97.6935
4.409   96.6472 98.7668 97.707
4.417   96.6339 98.7714 97.70265
4.424   96.6367 98.7598 97.69825
4.432   96.6449 98.7557 97.7003
4.440   96.6374 98.7599 97.69865
4.447   96.6276 98.7643 97.69595
4.455   96.622  98.7602 97.6911
4.463   96.6339 98.7596 97.69675
4.471   96.6395 98.7624 97.70095
4.478   96.6442 98.7678 97.706
4.486   96.6416 98.7732 97.7074
4.494   96.6427 98.7772 97.70995
4.501   96.6462 98.7769 97.71155
4.509   96.6432 98.7783 97.71075
4.517   96.6397 98.7718 97.70575
4.525   96.6479 98.7768 97.71235
4.532   96.6502 98.7844 97.7173
4.540   96.6468 98.7867 97.71675
4.548   96.6541 98.789  97.72155
4.556   96.6623 98.7929 97.7276
4.563   96.6705 98.7966 97.73355
4.571   96.6701 98.797  97.73355
4.579   96.6674 98.8006 97.734
4.586   96.6754 98.8047 97.74005
4.594   96.6864 98.8066 97.7465
4.602   96.6757 98.8019 97.7388
4.610   96.666  98.8022 97.7341
4.617   96.6693 98.8025 97.7359
4.625   96.6676 98.814  97.7408
4.633   96.6767 98.8222 97.74945
4.640   96.681  98.8215 97.75125
4.648   96.6745 98.8157 97.7451
4.656   96.6759 98.8109 97.7434
4.664   96.6756 98.8126 97.7441
4.671   96.6809 98.8187 97.7498
4.679   96.6946 98.8179 97.75625
4.687   96.6882 98.8166 97.7524
4.695   96.675  98.8242 97.7496
4.702   96.6702 98.8301 97.75015
4.710   96.6747 98.8309 97.7528
4.718   96.6788 98.832  97.7554
4.725   96.6863 98.8345 97.7604
4.733   96.7003 98.8387 97.7695
4.741   96.7009 98.8401 97.7705
4.749   96.6902 98.8414 97.7658
4.756   96.6918 98.8401 97.76595
4.764   96.6884 98.8387 97.76355
4.772   96.6865 98.8397 97.7631
4.779   96.6874 98.84   97.7637
4.787   96.6878 98.8379 97.76285
4.795   96.6901 98.8316 97.76085
4.803   96.6892 98.8265 97.75785
4.810   96.685  98.8344 97.7597
4.818   96.6755 98.845  97.76025
4.826   96.6747 98.8533 97.764
4.833   96.6737 98.8573 97.7655
4.841   96.6693 98.8472 97.75825
4.849   96.6668 98.8412 97.754
4.857   96.6638 98.8434 97.7536
4.864   96.6599 98.842  97.75095
4.872   96.6543 98.8383 97.7463
4.880   96.6658 98.8427 97.75425
4.888   96.6734 98.8448 97.7591
4.895   96.663  98.8451 97.75405
4.903   96.6506 98.8493 97.74995
4.911   96.6452 98.849  97.7471
4.918   96.6449 98.8463 97.7456
4.926   96.6397 98.8466 97.74315
4.934   96.6274 98.846  97.7367
4.942   96.6212 98.8487 97.73495
4.949   96.6174 98.8424 97.7299
4.957   96.6124 98.8367 97.72455
4.965   96.6123 98.8394 97.72585
4.972   96.6063 98.8398 97.72305
4.980   96.594  98.8366 97.7153
4.988   96.5855 98.8338 97.70965
4.996   96.5809 98.8359 97.7084
5.003   96.5826 98.8375 97.71005
5.011   96.5797 98.835  97.70735
5.019   96.5739 98.8377 97.7058
5.027   96.574  98.8424 97.7082
5.034   96.5759 98.8442 97.71005
5.042   96.5761 98.847  97.71155
5.050   96.5716 98.849  97.7103
5.057   96.5667 98.8498 97.70825
5.065   96.5618 98.8551 97.70845
5.073   96.5534 98.8567 97.70505
5.081   96.5452 98.8528 97.699
5.088   96.5464 98.8553 97.70085
5.096   96.5482 98.8558 97.702
5.104   96.5453 98.8508 97.69805
5.111   96.5399 98.848  97.69395
5.119   96.5352 98.8444 97.6898
5.127   96.5329 98.8381 97.6855
5.135   96.5286 98.8405 97.68455
5.142   96.5215 98.8476 97.68455
5.150   96.5228 98.8539 97.68835
5.158   96.5267 98.8526 97.68965
5.165   96.5332 98.8465 97.68985
5.173   96.537  98.8488 97.6929
5.181   96.5304 98.8505 97.69045
5.189   96.5207 98.8435 97.6821
5.196   96.5142 98.8393 97.67675
5.204   96.5109 98.8461 97.6785
5.212   96.5097 98.8512 97.68045
5.220   96.525  98.8531 97.68905
5.227   96.5222 98.847  97.6846
5.235   96.5059 98.8523 97.6791
5.243   96.499  98.8629 97.68095
5.250   96.4985 98.8594 97.67895
5.258   96.5019 98.853  97.67745
5.266   96.4972 98.8506 97.6739
5.274   96.4817 98.8526 97.66715
5.281   96.4668 98.8534 97.6601
5.289   96.4628 98.8462 97.6545
5.297   96.4728 98.8501 97.66145
5.304   96.4722 98.8564 97.6643
5.312   96.4631 98.8594 97.66125
5.320   96.4565 98.8576 97.65705
5.328   96.4515 98.8499 97.6507
5.335   96.4435 98.8412 97.64235
5.343   96.4284 98.8369 97.63265
5.351   96.4255 98.8548 97.64015
5.359   96.4317 98.875  97.65335
5.366   96.426  98.8651 97.64555
5.374   96.4204 98.8532 97.6368
5.382   96.4222 98.8526 97.6374
5.389   96.4309 98.8527 97.6418
5.397   96.4319 98.851  97.64145
5.405   96.4149 98.8456 97.63025
5.413   96.3896 98.8395 97.61455
5.420   96.389  98.8546 97.6218
5.428   96.4247 98.878  97.65135
5.436   96.4451 98.8728 97.65895
5.443   96.4417 98.8646 97.65315
5.451   96.4305 98.8626 97.64655
5.459   96.4062 98.8566 97.6314
5.467   96.3989 98.8699 97.6344
5.474   96.414  98.8835 97.64875
5.482   96.4355 98.8825 97.659
5.490   96.4474 98.8742 97.6608
5.498   96.4495 98.8692 97.65935
5.505   96.447  98.8758 97.6614
5.513   96.4353 98.8794 97.65735
5.521   96.439  98.8822 97.6606
5.528   96.4697 98.887  97.67835
5.536   96.4831 98.8814 97.68225
5.544   96.4691 98.877  97.67305
5.552   96.4618 98.8892 97.6755
5.559   96.4724 98.906  97.6892
5.567   96.4647 98.9022 97.68345
5.575   96.4522 98.8991 97.67565
5.582   96.4804 98.9205 97.70045
5.590   96.5078 98.9281 97.71795
5.598   96.4991 98.9188 97.70895
5.606   96.4839 98.9147 97.6993
5.613   96.4807 98.9159 97.6983
5.621   96.4777 98.9167 97.6972
5.629   96.458  98.9075 97.68275
5.636   96.4338 98.8986 97.6662
5.644   96.4512 98.9218 97.6865
5.652   96.4947 98.9446 97.71965
5.660   96.5224 98.9418 97.7321
5.667   96.5235 98.9258 97.72465
5.675   96.5256 98.9245 97.72505
5.683   96.5431 98.9316 97.73735
5.691   96.5561 98.9302 97.74315
5.698   96.5513 98.9236 97.73745
5.706   96.5297 98.9172 97.72345
5.714   96.5304 98.9327 97.73155
5.721   96.5545 98.9549 97.7547
5.729   96.5659 98.9508 97.75835
5.737   96.5593 98.9356 97.74745
5.745   96.5503 98.9335 97.7419
5.752   96.539  98.9372 97.7381
5.760   96.5157 98.9407 97.7282
5.768   96.5097 98.9676 97.73865
5.775   96.5368 98.9896 97.7632
5.783   96.5465 98.9697 97.7581
5.791   96.5351 98.9408 97.73795
5.799   96.5095 98.9186 97.71405
5.806   96.4689 98.8957 97.6823
5.814   96.413  98.8756 97.6443
5.822   96.3806 98.8891 97.63485
5.830   96.3961 98.9136 97.65485
5.837   96.3974 98.9006 97.649
5.845   96.3587 98.8716 97.61515
5.853   96.3054 98.8517 97.57855
5.860   96.2601 98.8439 97.552
5.868   96.2189 98.8355 97.5272
5.876   96.1721 98.8309 97.5015
5.884   96.1428 98.8545 97.49865
5.891   96.1488 98.8834 97.5161
5.899   96.1564 98.8768 97.5166
5.907   96.1255 98.8363 97.4809
5.914   96.0674 98.7935 97.43045
5.922   96.0021 98.768  97.38505
5.930   95.9409 98.7633 97.3521
5.938   95.9204 98.79   97.3552
5.945   95.9389 98.8116 97.37525
5.953   95.9268 98.7875 97.35715
5.961   95.8813 98.7528 97.31705
5.969   95.831  98.7346 97.2828
5.976   95.7819 98.7236 97.25275
5.984   95.7533 98.7179 97.2356
5.992   95.7611 98.725  97.24305
5.999   95.7579 98.7209 97.2394
6.007   95.7152 98.697  97.2061
6.015   95.6691 98.6792 97.17415
6.023   95.6373 98.6689 97.1531
6.030   95.588  98.6421 97.11505
6.038   95.513  98.6115 97.06225
6.046   95.4468 98.6167 97.03175
6.053   95.418  98.6432 97.0306
6.061   95.3843 98.6229 97.0036
6.069   95.3466 98.5917 96.96915
6.077   95.3467 98.5917 96.9692
6.084   95.354  98.5889 96.97145
6.092   95.3257 98.5611 96.9434
6.100   95.2623 98.5242 96.89325
6.107   95.1933 98.5111 96.8522
6.115   95.1762 98.5454 96.8608
6.123   95.1914 98.5567 96.87405
6.131   95.1775 98.5231 96.8503
6.138   95.143  98.4908 96.8169
6.146   95.1089 98.479  96.79395
6.154   95.0906 98.4787 96.78465
6.162   95.0936 98.4786 96.7861
6.169   95.0971 98.4688 96.78295
6.177   95.0889 98.4532 96.77105
6.185   95.0933 98.4554 96.77435
6.192   95.1132 98.4699 96.79155
6.200   95.1184 98.4669 96.79265
6.208   95.1096 98.4506 96.7801
6.216   95.1096 98.4408 96.7752
6.223   95.1198 98.4378 96.7788
6.231   95.1268 98.434  96.7804
6.239   95.1258 98.4303 96.77805
6.246   95.1164 98.4276 96.772
6.254   95.0988 98.4215 96.76015
6.262   95.0793 98.4114 96.74535
6.270   95.0635 98.3983 96.7309
6.277   95.0467 98.3813 96.714
6.285   95.0215 98.3598 96.69065
6.293   94.9862 98.335  96.6606
6.301   94.9396 98.3092 96.6244
6.308   94.8827 98.286  96.58435
6.316   94.8263 98.2666 96.54645
6.324   94.775  98.2459 96.51045
6.331   94.7158 98.2227 96.46925
6.339   94.6442 98.2093 96.42675
6.347   94.5789 98.208  96.39345
6.355   94.5157 98.1875 96.3516
6.362   94.4335 98.147  96.29025
6.370   94.3461 98.1136 96.22985
6.378   94.277  98.09   96.1835
6.385   94.2095 98.0583 96.1339
6.393   94.1204 98.0161 96.06825
6.401   94.0117 97.9737 95.9927
6.409   93.892  97.9539 95.92295
6.416   93.7916 97.974  95.8828
6.424   93.7353 97.9711 95.8532
6.432   93.6873 97.9241 95.8057
6.439   93.6261 97.8679 95.747
6.447   93.5507 97.8218 95.68625
6.455   93.4656 97.7858 95.6257
6.463   93.3752 97.7541 95.56465
6.470   93.2778 97.7234 95.5006
6.478   93.1698 97.6953 95.43255
6.486   93.0654 97.6781 95.37175
6.494   93.0009 97.6703 95.3356
6.501   92.9779 97.652  95.31495
6.509   92.9553 97.6173 95.2863
6.517   92.9183 97.5892 95.25375
6.524   92.8816 97.5786 95.2301
6.532   92.8471 97.569  95.20805
6.540   92.801  97.5443 95.17265
6.548   92.7422 97.5138 95.128
6.555   92.6831 97.4887 95.0859
6.563   92.6375 97.4752 95.05635
6.571   92.6244 97.483  95.0537
6.578   92.646  97.5024 95.0742
6.586   92.6782 97.5121 95.09515
6.594   92.705  97.505  95.105
6.602   92.7192 97.4837 95.10145
6.609   92.7169 97.456  95.08645
6.617   92.7008 97.4329 95.06685
6.625   92.6901 97.4335 95.0618
6.633   92.7199 97.479  95.09945
6.640   92.809  97.5565 95.18275
6.648   92.8746 97.5771 95.22585
6.656   92.8811 97.5477 95.2144
6.663   92.8819 97.524  95.20295
6.671   92.9139 97.5294 95.22165
6.679   92.9879 97.5654 95.27665
6.687   93.0701 97.6071 95.3386
6.694   93.1262 97.6348 95.3805
6.702   93.1575 97.6547 95.4061
6.710   93.1972 97.6866 95.4419
6.717   93.2681 97.7319 95.5
6.725   93.3474 97.7572 95.5523
6.733   93.4064 97.7565 95.58145
6.741   93.4553 97.7526 95.60395
6.748   93.5005 97.7556 95.62805
6.756   93.541  97.7651 95.65305
6.764   93.5746 97.778  95.6763
6.772   93.6048 97.7955 95.70015
6.779   93.6436 97.8259 95.73475
6.787   93.711  97.8784 95.7947
6.795   93.7916 97.9246 95.8581
6.802   93.8428 97.9394 95.8911
6.810   93.8682 97.9386 95.9034
6.818   93.8859 97.9419 95.9139
6.826   93.9082 97.9571 95.93265
6.833   93.9315 97.9757 95.9536
6.841   93.9383 97.9786 95.95845
6.849   93.9274 97.9685 95.94795
6.856   93.9305 97.9777 95.9541
6.864   93.9564 98.0087 95.98255
6.872   93.9836 98.0351 96.00935
6.880   93.9918 98.038  96.0149
6.887   93.9779 98.0204 95.99915
6.895   93.9531 97.9999 95.9765
6.903   93.9299 97.987  95.95845
6.910   93.912  97.9804 95.9462
6.918   93.8946 97.9753 95.93495
6.926   93.8721 97.9673 95.9197
6.934   93.8412 97.9546 95.8979
6.941   93.8029 97.9384 95.87065
6.949   93.7632 97.9277 95.84545
6.957   93.728  97.9273 95.82765
6.965   93.6958 97.9274 95.8116
6.972   93.6624 97.9182 95.7903
6.980   93.6241 97.8952 95.75965
6.988   93.5839 97.87   95.72695
6.995   93.5469 97.8563 95.7016
7.003   93.5103 97.8503 95.6803
7.011   93.4731 97.8477 95.6604
7.019   93.4353 97.8441 95.6397
7.026   93.3986 97.8355 95.61705
7.034   93.3688 97.822  95.5954
7.042   93.3537 97.8153 95.5845
7.049   93.3525 97.8153 95.5839
7.057   93.3582 97.817  95.5876
7.065   93.3587 97.8123 95.5855
7.073   93.3497 97.8029 95.5763
7.080   93.3431 97.7978 95.57045
7.088   93.3387 97.7955 95.5671
7.096   93.3347 97.7944 95.56455
7.104   93.3282 97.7928 95.5605
7.111   93.3246 97.7965 95.56055
7.119   93.3296 97.8036 95.5666
7.127   93.3399 97.8097 95.5748
7.134   93.3537 97.8135 95.5836
7.142   93.3706 97.8163 95.59345
7.150   93.398  97.8245 95.61125
7.158   93.4327 97.8369 95.6348
7.165   93.4726 97.852  95.6623
7.173   93.5154 97.8675 95.69145
7.181   93.5581 97.8774 95.71775
7.188   93.5985 97.8822 95.74035
7.196   93.6407 97.8897 95.7652
7.204   93.6874 97.9039 95.79565
7.212   93.7417 97.929  95.83535
7.219   93.7961 97.9529 95.8745
7.227   93.8454 97.9705 95.90795
7.235   93.8903 97.985  95.93765
7.243   93.9327 98.0005 95.9666
7.250   93.9761 98.0232 95.99965
7.258   94.023  98.0468 96.0349
7.266   94.0756 98.0705 96.07305
7.273   94.1353 98.0938 96.11455
7.281   94.2027 98.1187 96.1607
7.289   94.2671 98.1424 96.20475
7.297   94.3267 98.1643 96.2455
7.304   94.3802 98.1844 96.2823
7.312   94.4236 98.2031 96.31335
7.320   94.4566 98.222  96.3393
7.327   94.4865 98.2438 96.36515
7.335   94.5173 98.2701 96.3937
7.343   94.5588 98.3023 96.43055
7.351   94.6017 98.3307 96.4662
7.358   94.6428 98.3546 96.4987
7.366   94.6809 98.3735 96.5272
7.374   94.7201 98.3901 96.5551
7.381   94.7604 98.4055 96.58295
7.389   94.7991 98.4191 96.6091
7.397   94.8339 98.4302 96.63205
7.405   94.8613 98.4386 96.64995
7.412   94.885  98.4466 96.6658
7.420   94.9049 98.4555 96.6802
7.428   94.9187 98.4667 96.6927
7.436   94.9248 98.4783 96.70155
7.443   94.9287 98.4884 96.70855
7.451   94.9324 98.4968 96.7146
7.459   94.9431 98.5067 96.7249
7.466   94.9563 98.5205 96.7384
7.474   94.9679 98.5347 96.7513
7.482   94.9729 98.5458 96.75935
7.490   94.9668 98.5478 96.7573
7.497   94.9569 98.5464 96.75165
7.505   94.9446 98.5429 96.74375
7.513   94.9322 98.5409 96.73655
7.520   94.9182 98.5404 96.7293
7.528   94.9015 98.5411 96.7213
7.536   94.8794 98.5433 96.71135
7.544   94.8496 98.5459 96.69775
7.551   94.8162 98.5481 96.68215
7.559   94.7796 98.5495 96.66455
7.567   94.7405 98.5498 96.64515
7.575   94.6999 98.5504 96.62515
7.582   94.6576 98.5505 96.60405
7.590   94.6118 98.5478 96.5798
7.598   94.5625 98.5405 96.5515
7.605   94.5101 98.5299 96.52
7.613   94.4525 98.5163 96.4844
7.621   94.3875 98.5011 96.4443
7.629   94.3181 98.4851 96.4016
7.636   94.2441 98.4688 96.35645
7.644   94.165  98.4537 96.30935
7.652   94.0821 98.4392 96.26065
7.659   93.9956 98.4254 96.2105
7.667   93.8998 98.41   96.1549
7.675   93.7979 98.3931 96.0955
7.683   93.6894 98.3746 96.032
7.690   93.566  98.3523 95.95915
7.698   93.4343 98.3268 95.88055
7.706   93.2954 98.2984 95.7969
7.713   93.1486 98.2656 95.7071
7.721   92.9971 98.2305 95.6138
7.729   92.8411 98.1934 95.51725
7.737   92.6723 98.1527 95.4125
7.744   92.4894 98.1087 95.29905
7.752   92.295  98.0623 95.17865
7.760   92.0777 98.0112 95.04445
7.768   91.8424 97.9569 94.89965
7.775   91.5926 97.9002 94.7464
7.783   91.3144 97.8398 94.5771
7.791   91.014  97.7761 94.39505
7.798   90.6962 97.7095 94.20285
7.806   90.3439 97.6342 93.98905
7.814   89.9668 97.5516 93.7592
7.822   89.569  97.463  93.516
7.829   89.1181 97.3622 93.24015
7.837   88.6324 97.2551 92.94375
7.845   88.1148 97.1423 92.62855
7.852   87.5203 97.0149 92.2676
7.860   86.8845 96.879  91.88175
7.868   86.1981 96.7325 91.4653
7.876   85.4171 96.5634 90.99025
7.883   84.5838 96.3805 90.48215
7.891   83.6726 96.1769 89.92475
7.899   82.6474 95.9459 89.29665
7.907   81.5542 95.7007 88.62745
7.914   80.3345 95.4314 87.88295
7.922   78.9904 95.141  87.0657
7.930   77.5686 94.8373 86.20295
7.937   75.9872 94.5046 85.2459
7.945   74.3293 94.157  84.24315
7.953   72.6057 93.7963 83.201
7.961   70.7755 93.4144 82.09495
7.968   68.9136 93.026  80.9698
7.976   67.0049 92.6281 79.8165
7.984   65.0782 92.2254 78.6518
7.991   63.1572 91.8234 77.4903
7.999   61.2714 91.4284 76.3499
8.007   59.4533 91.0496 75.25145
8.015   57.6812 90.6817 74.18145
8.022   56.0803 90.3538 73.21705
8.030   54.5673 90.0445 72.3059
8.038   53.1885 89.7638 71.47615
8.046   52.0073 89.522  70.76465
8.053   50.927  89.3001 70.11355
8.061   50.0716 89.1218 69.5967
8.069   49.3577 88.9719 69.1648
8.076   48.7639 88.8461 68.805
8.084   48.3863 88.7652 68.57575
8.092   48.0888 88.7005 68.39465
8.100   47.9425 88.6665 68.3045
8.107   47.9148 88.6553 68.28505
8.115   47.9526 88.6569 68.30475
8.123   48.1402 88.6898 68.415
8.130   48.3687 88.7326 68.55065
8.138   48.6712 88.7934 68.7323
8.146   49.0348 88.8695 68.95215
8.154   49.4267 88.9525 69.1896
8.161   49.8819 89.0479 69.4649
8.169   50.356  89.145  69.7505
8.177   50.8608 89.2452 70.053
8.184   51.3938 89.347  70.3704
8.192   51.9384 89.4493 70.69385
8.200   52.5074 89.5547 71.03105
8.208   53.0778 89.6611 71.36945
8.215   53.6516 89.7699 71.71075
8.223   54.2215 89.8809 72.0512
8.231   54.7891 89.9928 72.39095
8.239   55.3533 90.1061 72.7297
8.246   55.916  90.2182 73.0671
8.254   56.4764 90.3275 73.40195
8.262   57.0312 90.4323 73.73175
8.269   57.5816 90.5341 74.05785
8.277   58.1197 90.6307 74.3752
8.285   58.6527 90.7262 74.68945
8.293   59.1731 90.8197 74.9964
8.300   59.6848 90.9129 75.29885
8.308   60.1861 91.006  75.59605
8.316   60.6718 91.1    75.8859
8.323   61.1511 91.1942 76.17265
8.331   61.6118 91.2876 76.4497
8.339   62.0677 91.379  76.72335
8.347   62.512  91.4657 76.98885
8.354   62.9473 91.549  77.24815
8.362   63.3747 91.6294 77.50205
8.370   63.7883 91.708  77.74815
8.378   64.1971 91.7862 77.99165
8.385   64.5921 91.8621 78.2271
8.393   64.9833 91.9375 78.4604
8.401   65.3668 92.0116 78.6892
8.408   65.7445 92.087  78.91575
8.416   66.1172 92.1635 79.14035
8.424   66.4795 92.24   79.35975
8.432   66.8383 92.3163 79.5773
8.439   67.182  92.3866 79.7843
8.447   67.5225 92.4558 79.98915
8.455   67.8522 92.5214 80.1868
8.462   68.1761 92.5866 80.38135
8.470   68.4922 92.6516 80.5719
8.478   68.7979 92.7154 80.75665
8.486   69.0976 92.7787 80.93815
8.493   69.3877 92.8384 81.11305
8.501   69.6754 92.8972 81.2863
8.509   69.9626 92.9533 81.45795
8.517   70.2497 93.0092 81.62945
8.524   70.537  93.0653 81.80115
8.532   70.8193 93.1209 81.9701
8.540   71.095  93.1762 82.1356
8.547   71.36   93.2293 82.29465
8.555   71.6178 93.2809 82.44935
8.563   71.8663 93.3295 82.5979
8.571   72.1117 93.3772 82.74445
8.578   72.3513 93.4247 82.888
8.586   72.5897 93.4724 83.03105
8.594   72.825  93.5219 83.17345
8.601   73.0593 93.5718 83.31555
8.609   73.2915 93.6226 83.45705
8.617   73.5206 93.6735 83.59705
8.625   73.7456 93.7242 83.7349
8.632   73.9659 93.7741 83.87
8.640   74.1822 93.8231 84.00265
8.648   74.3967 93.8701 84.1334
8.655   74.6103 93.9162 84.26325
8.663   74.8251 93.9596 84.39235
8.671   75.0399 94.0024 84.52115
8.679   75.2538 94.0419 84.64785
8.686   75.4669 94.0807 84.7738
8.694   75.6745 94.1158 84.89515
8.702   75.8803 94.1507 85.0155
8.710   76.0789 94.1844 85.13165
8.717   76.2749 94.2187 85.2468
8.725   76.465  94.2552 85.3601
8.733   76.6538 94.2934 85.4736
8.740   76.8405 94.3346 85.58755
8.748   77.0288 94.3772 85.703
8.756   77.2189 94.4214 85.82015
8.764   77.4123 94.4666 85.93945
8.771   77.608  94.5124 86.0602
8.779   77.8061 94.559  86.18255
8.787   78.0053 94.6058 86.30555
8.794   78.2061 94.651  86.42855
8.802   78.4071 94.6954 86.55125
8.810   78.6101 94.7358 86.67295
8.818   78.8133 94.7751 86.7942
8.825   79.0183 94.812  86.91515
8.833   79.2233 94.8485 87.0359
8.841   79.43   94.8868 87.1584
8.849   79.6365 94.9252 87.28085
8.856   79.8463 94.9682 87.40725
8.864   80.056  95.0114 87.5337
8.872   80.2746 95.0581 87.66635
8.879   80.4934 95.1048 87.7991
8.887   80.727  95.152  87.9395
8.895   80.9608 95.1993 88.08005
8.903   81.2083 95.2472 88.22775
8.910   81.456  95.2951 88.37555
8.918   81.7126 95.3457 88.52915
8.926   81.9692 95.3964 88.6828
8.933   82.2329 95.4498 88.84135
8.941   82.4967 95.5033 89
8.949   82.7666 95.5574 89.162
8.957   83.0365 95.6115 89.324
8.964   83.3104 95.6667 89.48855
8.972   83.5843 95.7219 89.6531
8.980   83.8617 95.7784 89.82005
8.987   84.139  95.8345 89.98675
8.995   84.42   95.888  90.154
9.003   84.7005 95.941  90.32075
9.011   84.9821 95.9878 90.48495
9.018   85.2631 96.0346 90.64885
9.026   85.5387 96.0772 90.80795
9.034   85.8139 96.1198 90.96685
9.042   86.073  96.1625 91.11775
9.049   86.3315 96.2051 91.2683
9.057   86.5664 96.248  91.4072
9.065   86.7997 96.2909 91.5453
9.072   87.009  96.3299 91.66945
9.080   87.2154 96.3686 91.792
9.088   87.3974 96.3992 91.8983
9.096   87.5746 96.4283 92.00145
9.103   87.7255 96.448  92.08675
9.111   87.8686 96.4649 92.16675
9.119   87.9889 96.472  92.23045
9.126   88.0997 96.4752 92.28745
9.134   88.1943 96.4706 92.33245
9.142   88.2796 96.4615 92.37055
9.150   88.3514 96.4484 92.3999
9.157   88.412  96.4318 92.4219
9.165   88.4612 96.4136 92.4374
9.173   88.4967 96.3937 92.4452
9.181   88.5256 96.3734 92.4495
9.188   88.5426 96.3526 92.4476
9.196   88.5575 96.3315 92.4445
9.204   88.5656 96.3099 92.43775
9.211   88.5731 96.2878 92.43045
9.219   88.5768 96.2627 92.41975
9.227   88.5805 96.2376 92.40905
9.235   88.5798 96.2087 92.39425
9.242   88.5791 96.1799 92.3795
9.250   88.573  96.1533 92.36315
9.258   88.5662 96.1269 92.34655
9.265   88.5565 96.105  92.33075
9.273   88.5457 96.0849 92.3153
9.281   88.5363 96.0659 92.3011
9.289   88.528  96.0477 92.28785
9.296   88.5242 96.0286 92.2764
9.304   88.5261 96.0081 92.2671
9.312   88.5311 95.9874 92.25925
9.320   88.5446 95.9659 92.25525
9.327   88.5581 95.9448 92.25145
9.335   88.5729 95.9261 92.2495
9.343   88.5877 95.9074 92.24755
9.350   88.5958 95.8936 92.2447
9.358   88.6035 95.8801 92.2418
9.366   88.6088 95.8716 92.2402
9.374   88.6133 95.8646 92.23895
9.381   88.6185 95.8607 92.2396
9.389   88.6243 95.8593 92.2418
9.397   88.6303 95.8579 92.2441
9.404   88.6366 95.8565 92.24655
9.412   88.6436 95.8547 92.24915
9.420   88.654  95.8502 92.2521
9.428   88.6643 95.8457 92.255
9.435   88.6849 95.8436 92.26425
9.443   88.7063 95.8417 92.274
9.451   88.7367 95.8453 92.291
9.458   88.7707 95.851  92.31085
9.466   88.8079 95.8579 92.3329
9.474   88.8485 95.8658 92.35715
9.482   88.889  95.8729 92.38095
9.489   88.9292 95.877  92.4031
9.497   88.9694 95.8812 92.4253
9.505   89.0079 95.8856 92.44675
9.513   89.0462 95.89   92.4681
9.520   89.0856 95.8982 92.4919
9.528   89.1255 95.9077 92.5166
9.536   89.1678 95.9186 92.5432
9.543   89.2128 95.9311 92.57195
9.551   89.2585 95.944  92.60125
9.559   89.3068 95.9576 92.6322
9.567   89.3551 95.9712 92.66315
9.574   89.4002 95.9878 92.694
9.582   89.445  96.0047 92.72485
9.590   89.4874 96.0246 92.756
9.597   89.5285 96.0461 92.7873
9.605   89.5713 96.0687 92.82
9.613   89.6175 96.0934 92.85545
9.621   89.664  96.1182 92.8911
9.628   89.7212 96.1455 92.93335
9.636   89.7783 96.1728 92.97555
9.644   89.8414 96.2027 93.02205
9.652   89.907  96.2338 93.0704
9.659   89.9741 96.2659 93.12
9.667   90.0437 96.2999 93.1718
9.675   90.113  96.334  93.2235
9.682   90.1802 96.3684 93.2743
9.690   90.2472 96.4027 93.32495
9.698   90.3098 96.4363 93.37305
9.706   90.3703 96.4694 93.41985
9.713   90.4303 96.502  93.46615
9.721   90.4894 96.5339 93.51165
9.729   90.5482 96.5658 93.557
9.736   90.6136 96.5974 93.6055
9.744   90.6789 96.6288 93.65385
9.752   90.7488 96.6624 93.7056
9.760   90.8216 96.697  93.7593
9.767   90.8948 96.7333 93.81405
9.775   90.9692 96.7748 93.872
9.783   91.0435 96.8163 93.9299
9.791   91.1141 96.8594 93.98675
9.798   91.1839 96.9027 94.0433
9.806   91.2526 96.9418 94.0972
9.814   91.3198 96.9763 94.14805
9.821   91.3872 97.0101 94.19865
9.829   91.4595 97.036  94.24775
9.837   91.5316 97.0618 94.2967
9.845   91.6073 97.0883 94.3478
9.852   91.6852 97.1152 94.4002
9.860   91.7622 97.1429 94.45255
9.868   91.8367 97.1739 94.5053
9.875   91.9111 97.2048 94.55795
9.883   91.9781 97.2371 94.6076
9.891   92.0432 97.27   94.6566
9.899   92.1057 97.3037 94.7047
9.906   92.164  97.339  94.7515
9.914   92.222  97.3743 94.79815
9.922   92.2803 97.4112 94.84575
9.929   92.3384 97.4483 94.89335
9.937   92.3998 97.4848 94.9423
9.945   92.4651 97.5205 94.9928
9.953   92.5303 97.5563 95.0433
9.960   92.6017 97.5883 95.095
9.968   92.6733 97.6201 95.1467
9.976   92.7426 97.649  95.1958
9.984   92.8095 97.6749 95.2422
9.991   92.8765 97.7006 95.28855
9.999   92.9315 97.7206 95.32605
10.007  92.9864 97.7406 95.3635
10.014  93.0369 97.7592 95.39805
10.022  93.0828 97.7763 95.42955
10.030  93.1287 97.7934 95.46105
10.038  93.1705 97.81   95.49025
10.045  93.2123 97.8267 95.5195
10.053  93.2527 97.8441 95.5484
10.061  93.2918 97.8622 95.577
10.069  93.3308 97.8804 95.6056
10.076  93.3674 97.9021 95.63475
10.084  93.4039 97.9238 95.66385
10.092  93.4392 97.9458 95.6925
10.099  93.473  97.9682 95.7206
10.107  93.5067 97.9905 95.7486
10.115  93.5382 98.0081 95.77315
10.123  93.5693 98.0249 95.7971
10.130  93.5991 98.0401 95.8196
10.138  93.6261 98.0514 95.83875
10.146  93.6532 98.0627 95.85795
10.153  93.6747 98.0729 95.8738
10.161  93.6943 98.0825 95.8884
10.169  93.7122 98.0917 95.90195
10.177  93.7221 98.0984 95.91025
10.184  93.7318 98.1051 95.91845
10.192  93.7379 98.1088 95.92335
10.200  93.7411 98.1102 95.92565
10.207  93.7443 98.1116 95.92795
10.215  93.7459 98.1115 95.9287
10.223  93.7476 98.1113 95.92945
10.231  93.749  98.1123 95.93065
10.238  93.7496 98.1152 95.9324
10.246  93.7503 98.118  95.93415
10.254  93.7502 98.1227 95.93645
10.262  93.7497 98.1279 95.9388
10.269  93.7497 98.133  95.94135
10.277  93.7527 98.1381 95.9454
10.285  93.7556 98.1432 95.9494
10.292  93.7616 98.1478 95.9547
10.300  93.771  98.1518 95.9614
10.308  93.7804 98.1559 95.96815
10.316  93.7924 98.1579 95.97515
10.323  93.8048 98.1594 95.9821
10.331  93.8166 98.1604 95.9885
10.339  93.8251 98.1588 95.99195
10.346  93.8337 98.1572 95.99545
10.354  93.8366 98.1556 95.9961
10.362  93.8343 98.1541 95.9942
10.370  93.8318 98.1525 95.99215
10.377  93.8198 98.1545 95.98715
10.385  93.8056 98.1572 95.9814
10.393  93.7909 98.16   95.97545
10.401  93.7722 98.1643 95.96825
10.408  93.7535 98.1686 95.96105
10.416  93.7354 98.1701 95.95275
10.424  93.7181 98.168  95.94305
10.431  93.7008 98.1659 95.93335
10.439  93.6867 98.1583 95.9225
10.447  93.6739 98.1487 95.9113
10.455  93.6611 98.1391 95.9001
10.462  93.6556 98.1293 95.89245
10.470  93.6501 98.1193 95.8847
10.478  93.646  98.111  95.8785
10.485  93.6455 98.1068 95.87615
10.493  93.6451 98.1027 95.8739
10.501  93.6433 98.1017 95.8725
10.509  93.6402 98.1038 95.872
10.516  93.637  98.1059 95.87145
10.524  93.6277 98.111  95.86935
10.532  93.6164 98.117  95.8667
10.540  93.6051 98.1231 95.8641
10.547  93.588  98.1303 95.85915
10.555  93.5708 98.1376 95.8542
10.563  93.5545 98.1445 95.8495
10.570  93.5413 98.1504 95.84585
10.578  93.5282 98.1562 95.8422
10.586  93.5189 98.1608 95.83985
10.594  93.5153 98.164  95.83965
10.601  93.5116 98.1673 95.83945
10.609  93.5093 98.1699 95.8396
10.617  93.5078 98.1721 95.83995
10.624  93.5063 98.1742 95.84025
10.632  93.5033 98.1758 95.83955
10.640  93.4999 98.1773 95.8386
10.648  93.4965 98.1787 95.8376
10.655  93.4977 98.1769 95.8373
10.663  93.499  98.175  95.837
10.671  93.5008 98.173  95.8369
10.678  93.5059 98.1699 95.8379
10.686  93.511  98.1667 95.83885
10.694  93.5142 98.1646 95.8394
10.702  93.5127 98.1653 95.839
10.709  93.5112 98.166  95.8386
10.717  93.5077 98.1681 95.8379
10.725  93.5015 98.1719 95.8367
10.733  93.4952 98.1757 95.83545
10.740  93.4932 98.1789 95.83605
10.748  93.4946 98.1817 95.83815
10.756  93.4959 98.1845 95.8402
10.763  93.5016 98.1858 95.8437
10.771  93.5095 98.1864 95.84795
10.779  93.5172 98.1871 95.85215
10.787  93.5211 98.1869 95.854
10.794  93.5239 98.1864 95.85515
10.802  93.5265 98.1861 95.8563
10.810  93.5237 98.1858 95.85475
10.817  93.5201 98.1856 95.85285
10.825  93.5164 98.1854 95.8509
10.833  93.5141 98.187  95.85055
10.841  93.512  98.1889 95.85045
10.848  93.5098 98.1908 95.8503
10.856  93.5095 98.1944 95.85195
10.864  93.5091 98.198  95.85355
10.872  93.5086 98.2015 95.85505
10.879  93.5072 98.204  95.8556
10.887  93.5059 98.2065 95.8562
10.895  93.5051 98.2089 95.857
10.902  93.5096 98.2097 95.85965
10.910  93.5139 98.2105 95.8622
10.918  93.5192 98.2114 95.8653
10.926  93.5303 98.2126 95.87145
10.933  93.5413 98.2138 95.87755
10.941  93.5511 98.2149 95.883
10.949  93.5543 98.216  95.88515
10.956  93.5573 98.2171 95.8872
10.964  93.5587 98.2179 95.8883
10.972  93.5515 98.2169 95.8842
10.980  93.5444 98.2159 95.88015
10.987  93.5385 98.215  95.87675
10.995  93.5393 98.2144 95.87685
11.003  93.54   98.2137 95.87685
11.010  93.5423 98.2136 95.87795
11.018  93.5539 98.217  95.88545
11.026  93.5656 98.2206 95.8931
11.034  93.5766 98.2244 95.9005
11.041  93.5808 98.2299 95.90535
11.049  93.585  98.2356 95.9103
11.057  93.5887 98.2412 95.91495
11.065  93.5828 98.2444 95.9136
11.072  93.5769 98.2477 95.9123
11.080  93.5709 98.251  95.91095
11.088  93.5715 98.2528 95.91215
11.095  93.5722 98.2545 95.91335
11.103  93.5729 98.2563 95.9146
11.111  93.5824 98.2588 95.9206
11.119  93.5926 98.2614 95.927
11.126  93.603  98.2641 95.93355
11.134  93.6099 98.2679 95.9389
11.142  93.616  98.2718 95.9439
11.149  93.6222 98.2758 95.949
11.157  93.6228 98.2801 95.95145
11.165  93.6214 98.2845 95.95295
11.173  93.6199 98.2887 95.9543
11.180  93.619  98.2904 95.9547
11.188  93.6184 98.2904 95.9544
11.196  93.618  98.2904 95.9542
11.204  93.6183 98.2871 95.9527
11.211  93.6197 98.2805 95.9501
11.219  93.6212 98.2738 95.9475
11.227  93.6213 98.2674 95.94435
11.234  93.6191 98.2611 95.9401
11.242  93.6169 98.255  95.93595
11.250  93.6145 98.2499 95.9322
11.258  93.6112 98.2495 95.93035
11.265  93.608  98.2491 95.92855
11.273  93.605  98.2487 95.92685
11.281  93.6058 98.2505 95.92815
11.288  93.6066 98.2523 95.92945
11.296  93.6073 98.2541 95.9307
11.304  93.6062 98.256  95.9311
11.312  93.6046 98.2577 95.93115
11.319  93.6031 98.2596 95.93135
11.327  93.5955 98.2629 95.9292
11.335  93.5847 98.267  95.92585
11.343  93.5739 98.271  95.92245
11.350  93.5626 98.2749 95.91875
11.358  93.5506 98.2786 95.9146
11.366  93.5385 98.2824 95.91045
11.373  93.5274 98.2848 95.9061
11.381  93.5196 98.2828 95.9012
11.389  93.5119 98.2807 95.8963
11.397  93.5042 98.2787 95.89145
11.404  93.487  98.2722 95.8796
11.412  93.4696 98.2658 95.8677
11.420  93.4523 98.2593 95.8558
11.427  93.4244 98.2544 95.8394
11.435  93.3929 98.25   95.82145
11.443  93.3613 98.2457 95.8035
11.451  93.3339 98.2432 95.78855
11.458  93.3111 98.2428 95.77695
11.466  93.2885 98.2423 95.7654
11.474  93.2694 98.2419 95.75565
11.481  93.2662 98.2413 95.75375
11.489  93.263  98.2407 95.75185
11.497  93.2599 98.2402 95.75005
11.505  93.2568 98.2361 95.74645
11.512  93.2537 98.2316 95.74265
11.520  93.2506 98.2272 95.7389
11.528  93.2397 98.2197 95.7297
11.536  93.2231 98.2103 95.7167
11.543  93.2066 98.2008 95.7037
11.551  93.1885 98.1909 95.6897
11.559  93.1656 98.1796 95.6726
11.566  93.1428 98.1684 95.6556
11.574  93.1201 98.1572 95.63865
11.582  93.0962 98.1498 95.623
11.590  93.0721 98.143  95.60755
11.597  93.0482 98.136  95.5921
11.605  93.0211 98.1321 95.5766
11.613  92.9918 98.1305 95.56115
11.620  92.9624 98.129  95.5457
11.628  92.9322 98.1272 95.5297
11.636  92.898  98.125  95.5115
11.644  92.8638 98.1228 95.4933
11.651  92.8297 98.1206 95.47515
11.659  92.7958 98.1144 95.4551
11.667  92.7619 98.1072 95.43455
11.675  92.7281 98.1001 95.4141
11.682  92.6935 98.0913 95.3924
11.690  92.6576 98.0805 95.36905
11.698  92.6218 98.0697 95.34575
11.705  92.586  98.0589 95.32245
11.713  92.5461 98.0481 95.2971
11.721  92.5062 98.0374 95.2718
11.729  92.4664 98.0267 95.24655
11.736  92.43   98.0167 95.22335
11.744  92.396  98.0074 95.2017
11.752  92.3621 97.9981 95.1801
11.759  92.3299 97.9887 95.1593
11.767  92.31   97.9799 95.14495
11.775  92.2901 97.9712 95.13065
11.783  92.2701 97.9623 95.1162
11.790  92.2546 97.954  95.1043
11.798  92.2411 97.9459 95.0935
11.806  92.2277 97.9379 95.0828
11.814  92.2134 97.9302 95.0718
11.821  92.1952 97.9235 95.05935
11.829  92.1771 97.9169 95.047
11.837  92.1591 97.9103 95.0347
11.844  92.1372 97.9046 95.0209
11.852  92.1136 97.8995 95.00655
11.860  92.0901 97.8943 94.9922
11.868  92.0665 97.8893 94.9779
11.875  92.042  97.8852 94.9636
11.883  92.0176 97.881  94.9493
11.891  91.9931 97.8768 94.93495
11.898  91.9693 97.8718 94.92055
11.906  91.9458 97.8662 94.906
11.914  91.9222 97.8606 94.8914
11.922  91.8993 97.8549 94.8771
11.929  91.8808 97.8471 94.86395
11.937  91.8624 97.8394 94.8509
11.945  91.8439 97.8318 94.83785
11.952  91.8305 97.8251 94.8278
11.960  91.8208 97.8193 94.82005
11.968  91.8111 97.8136 94.81235
11.976  91.8014 97.8079 94.80465
11.983  91.7943 97.8061 94.8002
11.991  91.7871 97.8043 94.7957
11.999  91.7799 97.8026 94.79125
12.007  91.7713 97.801  94.78615
12.014  91.7603 97.7997 94.78
12.022  91.7494 97.7984 94.7739
12.030  91.7385 97.7971 94.7678
12.037  91.7272 97.795  94.7611
12.045  91.7159 97.7927 94.7543
12.053  91.7046 97.7904 94.7475
12.061  91.6935 97.7887 94.7411
12.068  91.6836 97.789  94.7363
12.076  91.6737 97.7893 94.7315
12.084  91.6638 97.7896 94.7267
12.091  91.6535 97.7919 94.7227
12.099  91.643  97.7957 94.71935
12.107  91.6324 97.7996 94.716
12.115  91.6218 97.8034 94.7126
12.122  91.6136 97.8048 94.7092
12.130  91.6058 97.8059 94.70585
12.138  91.5979 97.807  94.70245
12.146  91.591  97.8067 94.69885
12.153  91.5881 97.8008 94.69445
12.161  91.5852 97.7949 94.69005
12.169  91.5824 97.789  94.6857
12.176  91.5791 97.7825 94.6808
12.184  91.5754 97.7754 94.6754
12.192  91.5717 97.7684 94.67005
12.200  91.568  97.7614 94.6647
12.207  91.5614 97.7583 94.65985
12.215  91.5541 97.7561 94.6551
12.223  91.5467 97.7539 94.6503
12.230  91.5395 97.7519 94.6457
12.238  91.5328 97.7522 94.6425
12.246  91.5262 97.7526 94.6394
12.254  91.5195 97.753  94.63625
12.261  91.5131 97.7529 94.633
12.269  91.5076 97.752  94.6298
12.277  91.5019 97.751  94.62645
12.284  91.4963 97.7501 94.6232
12.292  91.4912 97.7492 94.6202
12.300  91.4867 97.7483 94.6175
12.308  91.482  97.7474 94.6147
12.315  91.4773 97.7467 94.612
12.323  91.4785 97.7475 94.613
12.331  91.4813 97.7489 94.6151
12.339  91.484  97.7502 94.6171
12.346  91.4868 97.7516 94.6192
12.354  91.4966 97.7522 94.6244
12.362  91.5063 97.7527 94.6295
12.369  91.5162 97.7533 94.63475
12.377  91.5256 97.7534 94.6395
12.385  91.5331 97.7513 94.6422
12.393  91.5407 97.7493 94.645
12.400  91.5482 97.7472 94.6477
12.408  91.5551 97.7463 94.6507
12.416  91.5607 97.7473 94.654
12.423  91.5661 97.7485 94.6573
12.431  91.5717 97.7496 94.66065
12.439  91.5804 97.7543 94.66735
12.447  91.5927 97.7628 94.67775
12.454  91.6049 97.7714 94.68815
12.462  91.6172 97.7799 94.69855
12.470  91.6336 97.7908 94.7122
12.478  91.6528 97.8032 94.728
12.485  91.672  97.8156 94.7438
12.493  91.6912 97.8279 94.75955
12.501  91.7089 97.8386 94.77375
12.508  91.7261 97.8486 94.78735
12.516  91.7432 97.8586 94.8009
12.524  91.7603 97.8686 94.81445
12.532  91.7704 97.8728 94.8216
12.539  91.7789 97.8756 94.82725
12.547  91.7873 97.8785 94.8329
12.555  91.7957 97.8814 94.83855
12.562  91.799  97.8783 94.83865
12.570  91.8016 97.8744 94.838
12.578  91.8043 97.8706 94.83745
12.586  91.8069 97.8667 94.8368
12.593  91.8122 97.8634 94.8378
12.601  91.8177 97.8602 94.83895
12.609  91.8233 97.8569 94.8401
12.617  91.8288 97.8536 94.8412
12.624  91.8421 97.8566 94.84935
12.632  91.8556 97.8598 94.8577
12.640  91.8691 97.863  94.86605
12.647  91.8826 97.8662 94.8744
12.655  91.9029 97.8738 94.88835
12.663  91.9235 97.8814 94.90245
12.671  91.9438 97.889  94.9164
12.678  91.9643 97.8967 94.9305
12.686  91.9883 97.9032 94.94575
12.694  92.0123 97.9097 94.961
12.701  92.0363 97.9163 94.9763
12.709  92.0602 97.9227 94.99145
12.717  92.0832 97.9252 95.0042
12.725  92.1062 97.9275 95.01685
12.732  92.1291 97.9298 95.02945
12.740  92.152  97.932  95.042
12.748  92.1699 97.9313 95.0506
12.755  92.1872 97.9303 95.05875
12.763  92.2047 97.9293 95.067
12.771  92.222  97.9283 95.07515
12.779  92.2343 97.9275 95.0809
12.786  92.2456 97.9268 95.0862
12.794  92.2569 97.926  95.09145
12.802  92.2681 97.9253 95.0967
12.810  92.2769 97.927  95.10195
12.817  92.2849 97.9296 95.10725
12.825  92.2929 97.932  95.11245
12.833  92.3009 97.9346 95.11775
12.840  92.3097 97.9388 95.12425
12.848  92.3189 97.944  95.13145
12.856  92.3282 97.949  95.1386
12.864  92.3373 97.9542 95.14575
12.871  92.3499 97.9597 95.1548
12.879  92.3655 97.9657 95.1656
12.887  92.3811 97.9717 95.1764
12.894  92.3966 97.9777 95.18715
12.902  92.4142 97.9841 95.19915
12.910  92.4353 97.991  95.21315
12.918  92.4564 97.9981 95.22725
12.925  92.4774 98.005  95.2412
12.933  92.4974 98.012  95.2547
12.941  92.5135 98.0187 95.2661
12.949  92.5298 98.0254 95.2776
12.956  92.546  98.0321 95.28905
12.964  92.5617 98.0387 95.3002
12.972  92.5655 98.0429 95.3042
12.979  92.5693 98.047  95.30815
12.987  92.573  98.0512 95.3121
12.995  92.5768 98.0554 95.3161
13.003  92.5741 98.0584 95.31625
13.010  92.57   98.0611 95.31555
13.018  92.566  98.0638 95.3149
13.026  92.562  98.0666 95.3143
13.033  92.5576 98.0692 95.3134
13.041  92.5527 98.0716 95.31215
13.049  92.5478 98.074  95.3109
13.057  92.543  98.0764 95.3097
13.064  92.5384 98.0781 95.30825
13.072  92.5344 98.0782 95.3063
13.080  92.5304 98.0784 95.3044
13.088  92.5264 98.0785 95.30245
13.095  92.5225 98.0784 95.30045
13.103  92.5194 98.0763 95.29785
13.111  92.5164 98.0742 95.2953
13.118  92.5133 98.0721 95.2927
13.126  92.5103 98.07   95.29015
13.134  92.5086 98.069  95.2888
13.142  92.5072 98.0684 95.2878
13.149  92.5059 98.0678 95.28685
13.157  92.5046 98.0671 95.28585
13.165  92.5046 98.0677 95.28615
13.172  92.5061 98.0698 95.28795
13.180  92.5077 98.0719 95.2898
13.188  92.5092 98.0739 95.29155
13.196  92.5109 98.0761 95.2935
13.203  92.5134 98.079  95.2962
13.211  92.5161 98.0818 95.29895
13.219  92.5187 98.0846 95.30165
13.226  92.5213 98.0874 95.30435
13.234  92.5197 98.0898 95.30475
13.242  92.5168 98.0921 95.30445
13.250  92.5137 98.0944 95.30405
13.257  92.5108 98.0967 95.30375
13.265  92.5054 98.0984 95.3019
13.273  92.4957 98.0991 95.2974
13.281  92.4862 98.0998 95.293
13.288  92.4766 98.1005 95.28855
13.296  92.4671 98.1012 95.28415
13.304  92.4595 98.1001 95.2798
13.311  92.4519 98.099  95.27545
13.319  92.4444 98.0978 95.2711
13.327  92.4369 98.0967 95.2668
13.335  92.4325 98.0957 95.2641
13.342  92.4307 98.0948 95.26275
13.350  92.4291 98.0939 95.2615
13.358  92.4273 98.0931 95.2602
13.365  92.4257 98.0923 95.259
13.373  92.4249 98.0923 95.2586
13.381  92.424  98.0924 95.2582
13.389  92.4232 98.0924 95.2578
13.396  92.4225 98.0924 95.25745
13.404  92.4209 98.0918 95.25635
13.412  92.419  98.0909 95.25495
13.420  92.417  98.09   95.2535
13.427  92.4151 98.089  95.25205
13.435  92.413  98.0878 95.2504
13.443  92.4103 98.0852 95.24775
13.450  92.4076 98.0824 95.245
13.458  92.4047 98.0796 95.24215
13.466  92.402  98.0768 95.2394
13.474  92.3981 98.0729 95.2355
13.481  92.3936 98.0681 95.23085
13.489  92.3891 98.0632 95.22615
13.497  92.3846 98.0585 95.22155
13.504  92.38   98.0536 95.2168
13.512  92.3757 98.0472 95.21145
13.520  92.3713 98.0409 95.2061
13.528  92.367  98.0345 95.20075
13.535  92.3627 98.0282 95.19545
13.543  92.3599 98.0221 95.191
13.551  92.3587 98.0164 95.18755
13.558  92.3574 98.0107 95.18405
13.566  92.3561 98.005  95.18055
13.574  92.3549 97.9994 95.17715
13.582  92.3552 97.9952 95.1752
13.589  92.3557 97.9911 95.1734
13.597  92.3561 97.9872 95.17165
13.605  92.3566 97.9831 95.16985
13.613  92.3567 97.9794 95.16805
13.620  92.3559 97.9765 95.1662
13.628  92.3553 97.9737 95.1645
13.636  92.3545 97.9709 95.1627
13.643  92.3537 97.968  95.16085
13.651  92.3516 97.9668 95.1592
13.659  92.3487 97.9663 95.1575
13.667  92.3459 97.9658 95.15585
13.674  92.3431 97.9654 95.15425
13.682  92.3403 97.9649 95.1526
13.690  92.3368 97.9674 95.1521
13.697  92.3333 97.9698 95.15155
13.705  92.3298 97.9722 95.151
13.713  92.3264 97.9745 95.15045
13.721  92.3232 97.9767 95.14995
13.728  92.3208 97.9787 95.14975
13.736  92.3183 97.9807 95.1495
13.744  92.3159 97.9826 95.14925
13.752  92.3134 97.9846 95.149
13.759  92.3119 97.9846 95.14825
13.767  92.311  97.9834 95.1472
13.775  92.3102 97.9821 95.14615
13.782  92.3093 97.9809 95.1451
13.790  92.3084 97.9796 95.144
13.798  92.3085 97.977  95.14275
13.806  92.3087 97.9743 95.1415
13.813  92.309  97.9716 95.1403
13.821  92.3092 97.9688 95.139
13.829  92.3092 97.9662 95.1377
13.836  92.3071 97.9653 95.1362
13.844  92.3051 97.9643 95.1347
13.852  92.303  97.9634 95.1332
13.860  92.3009 97.9625 95.1317
13.867  92.297  97.9624 95.1297
13.875  92.289  97.9643 95.12665
13.883  92.2809 97.9662 95.12355
13.891  92.273  97.9681 95.12055
13.898  92.265  97.97   95.1175
13.906  92.2556 97.9723 95.11395
13.914  92.245  97.975  95.11
13.921  92.2344 97.9778 95.1061
13.929  92.2238 97.9806 95.1022
13.937  92.2132 97.9834 95.0983
13.945  92.2053 97.9845 95.0949
13.952  92.1986 97.9847 95.09165
13.960  92.1921 97.9849 95.0885
13.968  92.1855 97.9851 95.0853
13.975  92.179  97.9853 95.08215
13.983  92.1766 97.9819 95.07925
13.991  92.1755 97.9775 95.0765
13.999  92.1743 97.9732 95.07375
14.006  92.1731 97.9688 95.07095
14.014  92.172  97.9644 95.0682
14.022  92.1727 97.9595 95.0661
14.029  92.1737 97.9543 95.064
14.037  92.1746 97.9492 95.0619
14.045  92.1756 97.9442 95.0599
14.053  92.1765 97.9391 95.0578
14.060  92.1755 97.9389 95.0572
14.068  92.1743 97.9387 95.0565
14.076  92.1732 97.9386 95.0559
14.084  92.1721 97.9385 95.0553
14.091  92.1709 97.9385 95.0547
14.099  92.1661 97.9422 95.05415
14.107  92.1614 97.9458 95.0536
14.114  92.1568 97.9495 95.05315
14.122  92.1521 97.9532 95.05265
14.130  92.1473 97.9568 95.05205
14.138  92.1408 97.9586 95.0497
14.145  92.1342 97.9603 95.04725
14.153  92.1276 97.9621 95.04485
14.161  92.1211 97.9639 95.0425
14.168  92.1145 97.9654 95.03995
14.176  92.1077 97.9632 95.03545
14.184  92.1009 97.9609 95.0309
14.192  92.094  97.9588 95.0264
14.199  92.0873 97.9565 95.0219
14.207  92.0805 97.9542 95.01735
14.215  92.0746 97.9504 95.0125
14.223  92.0685 97.9466 95.00755
14.230  92.0626 97.9428 95.0027
14.238  92.0565 97.939  94.99775
14.246  92.0506 97.9352 94.9929
14.253  92.0456 97.9324 94.989
14.261  92.0408 97.9298 94.9853
14.269  92.0358 97.927  94.9814
14.277  92.0309 97.9243 94.9776
14.284  92.0261 97.9215 94.9738
14.292  92.0207 97.9201 94.9704
14.300  92.0154 97.9187 94.96705
14.307  92.0101 97.9174 94.96375
14.315  92.0047 97.9162 94.96045
14.323  91.9994 97.9148 94.9571
14.331  91.9944 97.9144 94.9544
14.338  91.9894 97.9141 94.95175
14.346  91.9845 97.9139 94.9492
14.354  91.9795 97.9137 94.9466
14.362  91.9746 97.9134 94.944
14.369  91.972  97.9136 94.9428
14.377  91.9707 97.914  94.94235
14.385  91.9694 97.9143 94.94185
14.392  91.9681 97.9147 94.9414
14.400  91.9667 97.915  94.94085
14.408  91.9667 97.9149 94.9408
14.416  91.9681 97.9141 94.9411
14.423  91.9694 97.9134 94.9414
14.431  91.9707 97.9127 94.9417
14.439  91.9721 97.912  94.94205
14.446  91.9726 97.9108 94.9417
14.454  91.9712 97.9086 94.9399
14.462  91.97   97.9063 94.93815
14.470  91.9686 97.9041 94.93635
14.477  91.9672 97.902  94.9346
14.485  91.9655 97.8997 94.9326
14.493  91.958  97.8969 94.92745
14.500  91.9505 97.8942 94.92235
14.508  91.943  97.8914 94.9172
14.516  91.9355 97.8887 94.9121
14.524  91.928  97.886  94.907
14.531  91.9162 97.8835 94.89985
14.539  91.9032 97.881  94.8921
14.547  91.8903 97.8785 94.8844
14.555  91.8773 97.876  94.87665
14.562  91.8645 97.8736 94.86905
14.570  91.8508 97.8721 94.86145
14.578  91.8364 97.8715 94.85395
14.585  91.822  97.8709 94.84645
14.593  91.8076 97.8703 94.83895
14.601  91.7933 97.8698 94.83155
14.609  91.7797 97.8697 94.8247
14.616  91.7697 97.8717 94.8207
14.624  91.7597 97.8738 94.81675
14.632  91.7497 97.8757 94.8127
14.639  91.7397 97.8777 94.8087
14.647  91.7297 97.8797 94.8047
14.655  91.7257 97.881  94.80335
14.663  91.7227 97.8822 94.80245
14.670  91.7195 97.8834 94.80145
14.678  91.7165 97.8846 94.80055
14.686  91.7135 97.8858 94.79965
14.694  91.7117 97.8848 94.79825
14.701  91.7115 97.8815 94.7965
14.709  91.7114 97.8781 94.79475
14.717  91.7111 97.8748 94.79295
14.724  91.7109 97.8716 94.79125
14.732  91.7105 97.868  94.78925
14.740  91.7086 97.8617 94.78515
14.748  91.7069 97.8555 94.7812
14.755  91.705  97.8492 94.7771
14.763  91.7033 97.843  94.77315
14.771  91.7015 97.8368 94.76915
14.778  91.699  97.8319 94.76545
14.786  91.6961 97.828  94.76205
14.794  91.6932 97.824  94.7586
14.802  91.6903 97.82   94.75515
14.809  91.6875 97.8161 94.7518
14.817  91.6846 97.8133 94.74895
14.825  91.6817 97.8155 94.7486
14.832  91.679  97.8176 94.7483
14.840  91.6762 97.8199 94.74805
14.848  91.6734 97.8221 94.74775
14.856  91.6705 97.8243 94.7474
14.863  91.6665 97.8312 94.74885
14.871  91.662  97.8401 94.75105
14.879  91.6574 97.849  94.7532
14.887  91.6529 97.858  94.75545
14.894  91.6483 97.8669 94.7576
14.902  91.6427 97.8759 94.7593
14.910  91.6308 97.886  94.7584
14.917  91.6189 97.8961 94.7575
14.925  91.607  97.9061 94.75655
14.933  91.5952 97.9162 94.7557
14.941  91.5834 97.9261 94.75475
14.948  91.5672 97.9293 94.74825
14.956  91.548  97.9276 94.7378
14.964  91.5289 97.9259 94.7274
14.971  91.5097 97.9243 94.717
14.979  91.4906 97.9226 94.7066
14.987  91.4716 97.9209 94.69625
14.995  91.4584 97.9117 94.68505
15.002  91.4453 97.9025 94.6739
15.010  91.4321 97.8932 94.66265
15.018  91.419  97.884  94.6515
15.026  91.4058 97.8747 94.64025
15.033  91.3951 97.8673 94.6312
15.041  91.3884 97.8628 94.6256
15.049  91.3817 97.8584 94.62005
15.056  91.3748 97.8539 94.61435
15.064  91.3681 97.8494 94.60875
15.072  91.3615 97.8451 94.6033
15.080  91.354  97.8435 94.59875
15.087  91.3463 97.8431 94.5947
15.095  91.3386 97.8427 94.59065
15.103  91.3309 97.8423 94.5866
15.110  91.3232 97.8419 94.58255
15.118  91.3155 97.8415 94.5785
15.126  91.3044 97.8403 94.57235
15.134  91.2932 97.8392 94.5662
15.141  91.2821 97.838  94.56005
15.149  91.271  97.8368 94.5539
15.157  91.2599 97.8356 94.54775
15.165  91.2483 97.8336 94.54095
15.172  91.2356 97.8297 94.53265
15.180  91.2229 97.8256 94.52425
15.188  91.2101 97.8216 94.51585
15.195  91.1975 97.8176 94.50755
15.203  91.1847 97.8137 94.4992
15.211  91.1723 97.8088 94.49055
15.219  91.1603 97.8033 94.4818
15.226  91.1481 97.7977 94.4729
15.234  91.136  97.7921 94.46405
15.242  91.1239 97.7866 94.45525
15.249  91.1119 97.781  94.44645
15.257  91.1016 97.7759 94.43875
15.265  91.092  97.7711 94.43155
15.273  91.0823 97.7661 94.4242
15.280  91.0728 97.7612 94.417
15.288  91.0632 97.7564 94.4098
15.296  91.0536 97.7515 94.40255
15.303  91.0448 97.7473 94.39605
15.311  91.0362 97.7433 94.38975
15.319  91.0275 97.7392 94.38335
15.327  91.0188 97.7351 94.37695
15.334  91.0102 97.7312 94.3707
15.342  91.0013 97.727  94.36415
15.350  90.9884 97.7216 94.355
15.358  90.9754 97.7162 94.3458
15.365  90.9625 97.7108 94.33665
15.373  90.9496 97.7053 94.32745
15.381  90.9367 97.7    94.31835
15.388  90.9231 97.6943 94.3087
15.396  90.9059 97.6874 94.29665
15.404  90.8887 97.6803 94.2845
15.412  90.8715 97.6734 94.27245
15.419  90.8543 97.6664 94.26035
15.427  90.8372 97.6595 94.24835
15.435  90.8204 97.6527 94.23655
15.442  90.8049 97.6466 94.22575
15.450  90.7895 97.6404 94.21495
15.458  90.774  97.6342 94.2041
15.466  90.7586 97.6281 94.19335
15.473  90.7432 97.6219 94.18255
15.481  90.7286 97.6167 94.17265
15.489  90.7164 97.6138 94.1651
15.497  90.7042 97.611  94.1576
15.504  90.692  97.6081 94.15005
15.512  90.6798 97.6053 94.14255
15.520  90.6677 97.6025 94.1351
15.527  90.6554 97.601  94.1282
15.535  90.6432 97.6031 94.12315
15.543  90.6309 97.605  94.11795
15.551  90.6186 97.6071 94.11285
15.558  90.6064 97.6092 94.1078
15.566  90.5942 97.6113 94.10275
15.574  90.5818 97.6141 94.09795
15.581  90.5691 97.6193 94.0942
15.589  90.5565 97.6245 94.0905
15.597  90.5438 97.6298 94.0868
15.605  90.5312 97.6349 94.08305
15.612  90.5186 97.6402 94.0794
15.620  90.5061 97.6451 94.0756
15.628  90.4944 97.6484 94.0714
15.636  90.4827 97.6517 94.0672
15.643  90.4711 97.6551 94.0631
15.651  90.4595 97.6584 94.05895
15.659  90.4478 97.6617 94.05475
15.666  90.4361 97.6648 94.05045
15.674  90.4228 97.6616 94.0422
15.682  90.4095 97.6582 94.03385
15.690  90.3962 97.6549 94.02555
15.697  90.3828 97.6516 94.0172
15.705  90.3696 97.6483 94.00895
15.713  90.3562 97.6451 94.00065
15.720  90.3386 97.6356 93.9871
15.728  90.3203 97.6254 93.97285
15.736  90.3021 97.6153 93.9587
15.744  90.2839 97.605  93.94445
15.751  90.2657 97.5949 93.9303
15.759  90.2475 97.5848 93.91615
15.767  90.2274 97.575  93.9012
15.774  90.2062 97.5653 93.88575
15.782  90.1852 97.5557 93.87045
15.790  90.1642 97.5461 93.85515
15.798  90.1432 97.5365 93.83985
15.805  90.1222 97.5269 93.82455
15.813  90.1014 97.5211 93.81125
15.821  90.0809 97.5195 93.8002
15.829  90.0603 97.5178 93.78905
15.836  90.0398 97.5161 93.77795
15.844  90.0193 97.5144 93.76685
15.852  89.9988 97.5127 93.75575
15.859  89.9784 97.5121 93.74525
15.867  89.9583 97.5153 93.7368
15.875  89.9383 97.5186 93.72845
15.883  89.9183 97.5217 93.72
15.890  89.8983 97.525  93.71165
15.898  89.8783 97.5283 93.7033
15.906  89.8583 97.5315 93.6949
15.913  89.8397 97.5317 93.6857
15.921  89.8213 97.5316 93.67645
15.929  89.8029 97.5314 93.66715
15.937  89.7845 97.5313 93.6579
15.944  89.7661 97.5312 93.64865
15.952  89.7477 97.5311 93.6394
15.960  89.7321 97.5278 93.62995
15.968  89.7185 97.5221 93.6203
15.975  89.7049 97.5166 93.61075
15.983  89.6913 97.5109 93.6011
15.991  89.6777 97.5054 93.59155
15.998  89.6642 97.4997 93.58195
16.006  89.6512 97.4939 93.57255
16.014  89.6408 97.4874 93.5641
16.022  89.6304 97.4809 93.55565
16.029  89.62   97.4744 93.5472
16.037  89.6096 97.4678 93.5387
16.045  89.5991 97.4614 93.53025
16.052  89.5888 97.4548 93.5218
16.060  89.5769 97.4505 93.5137
16.068  89.5648 97.4469 93.50585
16.076  89.5525 97.4433 93.4979
16.083  89.5403 97.4396 93.48995
16.091  89.5281 97.4359 93.482
16.099  89.516  97.4324 93.4742
16.106  89.5024 97.4291 93.46575
16.114  89.4863 97.4266 93.45645
16.122  89.4702 97.424  93.4471
16.130  89.454  97.4215 93.43775
16.137  89.4379 97.419  93.42845
16.145  89.4218 97.4165 93.41915
16.153  89.4057 97.414  93.40985
16.161  89.3861 97.409  93.39755
16.168  89.3659 97.4036 93.38475
16.176  89.3455 97.3981 93.3718
16.184  89.3252 97.3926 93.3589
16.191  89.305  97.3873 93.34615
16.199  89.2848 97.3818 93.3333
16.207  89.264  97.3757 93.31985
16.215  89.2417 97.3679 93.3048
16.222  89.2195 97.3601 93.2898
16.230  89.1973 97.3523 93.2748
16.238  89.1751 97.3445 93.2598
16.245  89.1528 97.3367 93.24475
16.253  89.1306 97.3289 93.22975
16.261  89.11   97.322  93.216
16.269  89.09   97.3155 93.20275
16.276  89.0701 97.309  93.18955
16.284  89.0501 97.3025 93.1763
16.292  89.0301 97.2959 93.163
16.300  89.0102 97.2895 93.14985
16.307  88.9905 97.283  93.13675
16.315  88.9731 97.2773 93.1252
16.323  88.9559 97.2716 93.11375
16.330  88.9386 97.2658 93.1022
16.338  88.9212 97.2602 93.0907
16.346  88.904  97.2544 93.0792
16.354  88.8868 97.2488 93.0678
16.361  88.8693 97.2428 93.05605
16.369  88.8518 97.2367 93.04425
16.377  88.8343 97.2306 93.03245
16.384  88.8167 97.2245 93.0206
16.392  88.7992 97.2184 93.0088
16.400  88.7818 97.2123 92.99705
16.408  88.7642 97.2063 92.98525
16.415  88.7465 97.2026 92.97455
16.423  88.7286 97.1999 92.96425
16.431  88.7108 97.1972 92.954
16.439  88.6929 97.1945 92.9437
16.446  88.6751 97.1919 92.9335
16.454  88.6574 97.1892 92.9233
16.462  88.6396 97.1865 92.91305
16.469  88.6262 97.1893 92.90775
16.477  88.6129 97.1922 92.90255
16.485  88.5996 97.1951 92.89735
16.493  88.5864 97.198  92.8922
16.500  88.5731 97.201  92.88705
16.508  88.5599 97.2039 92.8819
16.516  88.5483 97.2067 92.8775
16.523  88.5439 97.2087 92.8763
16.531  88.5395 97.2108 92.87515
16.539  88.535  97.2128 92.8739
16.547  88.5307 97.2149 92.8728
16.554  88.5263 97.217  92.87165
16.562  88.5219 97.2191 92.8705
16.570  88.5188 97.2185 92.86865
16.577  88.5182 97.213  92.8656
16.585  88.5175 97.2076 92.86255
16.593  88.5169 97.2022 92.85955
16.601  88.5162 97.1968 92.8565
16.608  88.5156 97.1914 92.8535
16.616  88.515  97.186  92.8505
16.624  88.5108 97.1786 92.8447
16.632  88.5029 97.1688 92.83585
16.639  88.4949 97.1591 92.827
16.647  88.4851 97.1865 92.8358
16.655  88.4806 97.1854 92.833
16.662  88.471  97.1299 92.80045
16.670  88.4631 97.1202 92.79165
16.678  88.4506 97.1117 92.78115
16.686  88.4345 97.1043 92.7694
16.693  88.4185 97.0968 92.75765
16.701  88.4024 97.0895 92.74595
16.709  88.3863 97.082  92.73415
16.716  88.3702 97.0746 92.7224
16.724  88.3543 97.0671 92.7107
16.732  88.3397 97.0625 92.7011
16.740  88.3261 97.0597 92.6929
16.747  88.3125 97.057  92.68475
16.755  88.2989 97.0542 92.67655
16.763  88.2854 97.0515 92.66845
16.771  88.2719 97.0487 92.6603
16.778  88.2583 97.0459 92.6521
16.786  88.2488 97.046  92.6474
16.794  88.2421 97.048  92.64505
16.801  88.2353 97.0501 92.6427
16.809  88.2287 97.0521 92.6404
16.817  88.222  97.0542 92.6381
16.825  88.2153 97.0563 92.6358
16.832  88.2087 97.0583 92.6335
16.840  88.2024 97.0616 92.632
16.848  88.1967 97.0659 92.6313
16.855  88.1909 97.0703 92.6306
16.863  88.1852 97.0747 92.62995
16.871  88.1793 97.0791 92.6292
16.879  88.1736 97.0834 92.6285
16.886  88.1678 97.0878 92.6278
16.894  88.1608 97.0915 92.62615
16.902  88.1521 97.0943 92.6232
16.910  88.1433 97.0972 92.62025
16.917  88.1345 97.1001 92.6173
16.925  88.1258 97.103  92.6144
16.933  88.117  97.1059 92.61145
16.940  88.1083 97.1087 92.6085
16.948  88.0993 97.1112 92.60525
16.956  88.0896 97.1129 92.60125
16.964  88.08   97.1145 92.59725
16.971  88.0703 97.1161 92.5932
16.979  88.0607 97.1178 92.58925
16.987  88.0511 97.1194 92.58525
16.994  88.0414 97.121  92.5812
17.002  88.0319 97.1225 92.5772
17.010  88.0225 97.1231 92.5728
17.018  88.0133 97.1236 92.56845
17.025  88.0039 97.1242 92.56405
17.033  87.9947 97.1248 92.55975
17.041  87.9854 97.1254 92.5554
17.048  87.9762 97.126  92.5511
17.056  87.9668 97.1265 92.54665
17.064  87.9568 97.1252 92.541
17.072  87.9466 97.1234 92.535
17.079  87.9363 97.1217 92.529
17.087  87.9261 97.12   92.52305
17.095  87.9159 97.1182 92.51705
17.103  87.9056 97.1165 92.51105
17.110  87.8954 97.1147 92.50505
17.118  87.8854 97.1135 92.49945
17.126  87.8754 97.1127 92.49405
17.133  87.8655 97.112  92.48875
17.141  87.8556 97.1112 92.4834
17.149  87.8457 97.1105 92.4781
17.157  87.8358 97.1097 92.47275
17.164  87.826  97.1089 92.46745
17.172  87.8168 97.1094 92.4631
17.180  87.8108 97.1149 92.46285
17.187  87.8046 97.1203 92.46245
17.195  87.7986 97.1256 92.4621
17.203  87.7926 97.1311 92.46185
17.211  87.7864 97.1365 92.46145
17.218  87.7804 97.1418 92.4611
17.226  87.7743 97.1472 92.46075
17.234  87.7705 97.1561 92.4633
17.242  87.767  97.1657 92.46635
17.249  87.7635 97.1755 92.4695
17.257  87.7601 97.1851 92.4726
17.265  87.7567 97.1948 92.47575
17.272  87.7533 97.2045 92.4789
17.280  87.7498 97.2141 92.48195
17.288  87.7454 97.222  92.4837
17.296  87.7395 97.227  92.48325
17.303  87.7334 97.2321 92.48275
17.311  87.7274 97.2371 92.48225
17.319  87.7215 97.2421 92.4818
17.326  87.7154 97.2472 92.4813
17.334  87.7095 97.2521 92.4808
17.342  87.7034 97.2571 92.48025
17.350  87.6955 97.2529 92.4742
17.357  87.6873 97.2477 92.4675
17.365  87.679  97.2424 92.4607
17.373  87.6708 97.237  92.4539
17.380  87.6626 97.2318 92.4472
17.388  87.6544 97.2265 92.44045
17.396  87.6463 97.2213 92.4338
17.404  87.6394 97.2143 92.42685
17.411  87.6354 97.2043 92.41985
17.419  87.6312 97.1943 92.41275
17.427  87.6271 97.1844 92.40575
17.435  87.6229 97.1745 92.3987
17.442  87.6188 97.1645 92.39165
17.450  87.6147 97.1545 92.3846
17.458  87.6105 97.1446 92.37755
17.465  87.6122 97.1386 92.3754
17.473  87.6156 97.1339 92.37475
17.481  87.619  97.1291 92.37405
17.489  87.6223 97.1243 92.3733
17.496  87.6257 97.1196 92.37265
17.504  87.6291 97.1148 92.37195
17.512  87.6325 97.11   92.37125
17.519  87.6365 97.1063 92.3714
17.527  87.6452 97.1096 92.3774
17.535  87.6539 97.113  92.38345
17.543  87.6625 97.1164 92.38945
17.550  87.6712 97.1198 92.3955
17.558  87.6799 97.1231 92.4015
17.566  87.6884 97.1265 92.40745
17.574  87.6971 97.1299 92.4135
17.581  87.7055 97.135  92.42025
17.589  87.7135 97.1423 92.4279
17.597  87.7215 97.1497 92.4356
17.604  87.7294 97.1569 92.44315
17.612  87.7374 97.1643 92.45085
17.620  87.7454 97.1716 92.4585
17.628  87.7533 97.1789 92.4661
17.635  87.7613 97.1862 92.47375
17.643  87.7647 97.1929 92.4788
17.651  87.7661 97.1992 92.48265
17.658  87.7674 97.2057 92.48655
17.666  87.7688 97.212  92.4904
17.674  87.7702 97.2184 92.4943
17.682  87.7716 97.2248 92.4982
17.689  87.773  97.2312 92.5021
17.697  87.7743 97.2375 92.5059
17.705  87.7689 97.2409 92.5049
17.713  87.7626 97.2439 92.50325
17.720  87.7563 97.2469 92.5016
17.728  87.7501 97.2499 92.5
17.736  87.7439 97.2528 92.49835
17.743  87.7376 97.2559 92.49675
17.751  87.7314 97.2589 92.49515
17.759  87.725  97.2617 92.49335
17.767  87.7147 97.2605 92.4876
17.774  87.7045 97.2592 92.48185
17.782  87.6943 97.258  92.47615
17.790  87.6842 97.2568 92.4705
17.797  87.6739 97.2556 92.46475
17.805  87.6638 97.2544 92.4591
17.813  87.6536 97.2532 92.4534
17.821  87.6435 97.2516 92.44755
17.828  87.6346 97.2483 92.44145
17.836  87.6255 97.2449 92.4352
17.844  87.6166 97.2415 92.42905
17.851  87.6076 97.238  92.4228
17.859  87.5985 97.2347 92.4166
17.867  87.5896 97.2313 92.41045
17.875  87.5806 97.2279 92.40425
17.882  87.5727 97.2247 92.3987
17.890  87.5696 97.2226 92.3961
17.898  87.5665 97.2206 92.39355
17.906  87.5634 97.2184 92.3909
17.913  87.5603 97.2163 92.3883
17.921  87.5572 97.2142 92.3857
17.929  87.5541 97.2121 92.3831
17.936  87.551  97.21   92.3805
17.944  87.5489 97.2084 92.37865
17.952  87.5514 97.2093 92.38035
17.960  87.5539 97.2102 92.38205
17.967  87.5565 97.2111 92.3838
17.975  87.559  97.2121 92.38555
17.983  87.5615 97.213  92.38725
17.990  87.5641 97.2139 92.389
17.998  87.5666 97.2148 92.3907
18.006  87.5691 97.2162 92.39265
18.014  87.572  97.2218 92.3969
18.021  87.5747 97.2274 92.40105
18.029  87.5774 97.233  92.4052
18.037  87.5801 97.2385 92.4093
18.045  87.5829 97.2441 92.4135
18.052  87.5857 97.2497 92.4177
18.060  87.5884 97.2552 92.4218
18.068  87.5911 97.2608 92.42595
18.075  87.5917 97.2706 92.43115
18.083  87.5922 97.2804 92.4363
18.091  87.5927 97.2903 92.4415
18.099  87.5932 97.3001 92.44665
18.106  87.5937 97.3099 92.4518
18.114  87.5943 97.3198 92.45705
18.122  87.5947 97.3295 92.4621
18.129  87.5952 97.3393 92.46725
18.137  87.5961 97.3475 92.4718
18.145  87.597  97.3553 92.47615
18.153  87.5979 97.3631 92.4805
18.160  87.5987 97.3708 92.48475
18.168  87.5997 97.3785 92.4891
18.176  87.6006 97.3863 92.49345
18.184  87.6015 97.394  92.49775
18.191  87.6024 97.4018 92.5021
18.199  87.6039 97.4062 92.50505
18.207  87.6059 97.408  92.50695
18.214  87.608  97.4099 92.50895
18.222  87.6099 97.4117 92.5108
18.230  87.612  97.4136 92.5128
18.238  87.614  97.4154 92.5147
18.245  87.616  97.4173 92.51665
18.253  87.618  97.4191 92.51855
18.261  87.6193 97.4207 92.52
18.268  87.6183 97.4218 92.52005
18.276  87.6173 97.4229 92.5201
18.284  87.6164 97.424  92.5202
18.292  87.6154 97.4251 92.52025
18.299  87.6144 97.4262 92.5203
18.307  87.6134 97.4273 92.52035
18.315  87.6126 97.4284 92.5205
18.322  87.6116 97.4295 92.52055
18.330  87.6055 97.4337 92.5196
18.338  87.5988 97.4381 92.51845
18.346  87.5921 97.4427 92.5174
18.353  87.5855 97.4472 92.51635
18.361  87.5788 97.4517 92.51525
18.369  87.5721 97.4562 92.51415
18.377  87.5655 97.4607 92.5131
18.384  87.5589 97.4652 92.51205
18.392  87.5516 97.4697 92.51065
18.400  87.5437 97.4741 92.5089
18.407  87.5357 97.4785 92.5071
18.415  87.5277 97.483  92.50535
18.423  87.5198 97.4874 92.5036
18.431  87.512  97.4918 92.5019
18.438  87.504  97.4962 92.5001
18.446  87.4961 97.5007 92.4984
18.454  87.4882 97.5051 92.49665
18.461  87.4821 97.5041 92.4931
18.469  87.4759 97.5032 92.48955
18.477  87.4698 97.5022 92.486
18.485  87.4637 97.5013 92.4825
18.492  87.4576 97.5003 92.47895
18.500  87.4515 97.4994 92.47545
18.508  87.4454 97.4984 92.4719
18.516  87.4393 97.4975 92.4684
18.523  87.4315 97.494  92.46275
18.531  87.4219 97.4877 92.4548
18.539  87.4122 97.4813 92.44675
18.546  87.4026 97.475  92.4388
18.554  87.3929 97.4686 92.43075
18.562  87.3833 97.4624 92.42285
18.570  87.3736 97.456  92.4148
18.577  87.364  97.4497 92.40685
18.585  87.3544 97.4434 92.3989
18.593  87.3409 97.4383 92.3896
18.600  87.3269 97.4335 92.3802
18.608  87.3129 97.4285 92.3707
18.616  87.2988 97.4236 92.3612
18.624  87.2849 97.4188 92.35185
18.631  87.2709 97.4138 92.34235
18.639  87.257  97.4089 92.33295
18.647  87.243  97.4041 92.32355
18.654  87.23   97.4004 92.3152
18.662  87.2199 97.401  92.31045
18.670  87.21   97.4015 92.30575
18.678  87.2001 97.4021 92.3011
18.685  87.1901 97.4027 92.2964
18.693  87.1802 97.4033 92.29175
18.701  87.1704 97.4038 92.2871
18.709  87.1604 97.4044 92.2824
18.716  87.1505 97.405  92.27775
18.724  87.1431 97.4053 92.2742
18.732  87.138  97.4054 92.2717
18.739  87.133  97.4055 92.26925
18.747  87.1279 97.4056 92.26675
18.755  87.1229 97.4057 92.2643
18.763  87.1179 97.4058 92.26185
18.770  87.1128 97.4059 92.25935
18.778  87.1078 97.406  92.2569
18.786  87.1028 97.4061 92.25445
18.793  87.0952 97.4031 92.24915
18.801  87.0866 97.3988 92.2427
18.809  87.0779 97.3945 92.2362
18.817  87.0694 97.3904 92.2299
18.824  87.0607 97.3861 92.2234
18.832  87.0521 97.3819 92.217
18.840  87.0436 97.3777 92.21065
18.848  87.035  97.3735 92.20425
18.855  87.0264 97.3692 92.1978
18.863  87.0137 97.364  92.18885
18.871  87.0002 97.3588 92.1795
18.878  86.9868 97.3534 92.1701
18.886  86.9734 97.3481 92.16075
18.894  86.96   97.3428 92.1514
18.902  86.9466 97.3374 92.142
18.909  86.9333 97.3322 92.13275
18.917  86.92   97.3268 92.1234
18.925  86.9066 97.3215 92.11405
18.932  86.8945 97.3132 92.10385
18.940  86.8825 97.3048 92.09365
18.948  86.8705 97.2963 92.0834
18.956  86.8585 97.2879 92.0732
18.963  86.8465 97.2795 92.063
18.971  86.8345 97.2711 92.0528
18.979  86.8226 97.2627 92.04265
18.987  86.8107 97.2543 92.0325
18.994  86.7987 97.2459 92.0223
19.002  86.7869 97.2311 92.009
19.010  86.775  97.2162 91.9956
19.017  86.7632 97.2012 91.9822
19.025  86.7515 97.1863 91.9689
19.033  86.7397 97.1714 91.95555
19.041  86.7279 97.1565 91.9422
19.048  86.7161 97.1416 91.92885
19.056  86.7044 97.1267 91.91555
19.064  86.6926 97.1119 91.90225
19.071  86.6726 97.097  91.8848
19.079  86.6519 97.0822 91.86705
19.087  86.6313 97.0674 91.84935
19.095  86.6106 97.0525 91.83155
19.102  86.59   97.0377 91.81385
19.110  86.5693 97.0231 91.7962
19.118  86.5488 97.0083 91.77855
19.125  86.5282 96.9935 91.76085
19.133  86.5077 96.9788 91.74325
19.141  86.4773 96.9683 91.7228
19.149  86.4448 96.9589 91.70185
19.156  86.4124 96.9495 91.68095
19.164  86.38   96.94   91.66
19.172  86.3475 96.9307 91.6391
19.180  86.3152 96.9213 91.61825
19.187  86.2829 96.9118 91.59735
19.195  86.2505 96.9025 91.5765
19.203  86.2182 96.8932 91.5557
19.210  86.1826 96.8853 91.53395
19.218  86.1453 96.8785 91.5119
19.226  86.108  96.8716 91.4898
19.234  86.0707 96.8648 91.46775
19.241  86.0334 96.8579 91.44565
19.249  85.9962 96.8511 91.42365
19.257  85.959  96.8442 91.4016
19.264  85.9219 96.8374 91.37965
19.272  85.8847 96.8305 91.3576
19.280  85.8496 96.8239 91.33675
19.288  85.8175 96.8176 91.31755
19.295  85.7854 96.8112 91.2983
19.303  85.7534 96.805  91.2792
19.311  85.7214 96.7986 91.26
19.319  85.6894 96.7924 91.2409
19.326  85.6575 96.7861 91.2218
19.334  85.6255 96.7798 91.20265
19.342  85.5937 96.7735 91.1836
19.349  85.5622 96.7675 91.16485
19.357  85.5356 96.7637 91.14965
19.365  85.509  96.76   91.1345
19.373  85.4825 96.7562 91.11935
19.380  85.456  96.7526 91.1043
19.388  85.4295 96.7488 91.08915
19.396  85.403  96.7451 91.07405
19.403  85.3766 96.7413 91.05895
19.411  85.3502 96.7377 91.04395
19.419  85.3238 96.734  91.0289
19.427  85.2947 96.7333 91.014
19.434  85.2646 96.734  90.9993
19.442  85.2344 96.7346 90.9845
19.450  85.2044 96.7353 90.96985
19.458  85.1744 96.736  90.9552
19.465  85.1443 96.7366 90.94045
19.473  85.1143 96.7373 90.9258
19.481  85.0843 96.738  90.91115
19.488  85.0543 96.7386 90.89645
19.496  85.0226 96.7394 90.881
19.504  84.9855 96.7401 90.8628
19.512  84.9485 96.741  90.84475
19.519  84.9115 96.7418 90.82665
19.527  84.8745 96.7427 90.8086
19.535  84.8374 96.7435 90.79045
19.542  84.8005 96.7444 90.77245
19.550  84.7635 96.7453 90.7544
19.558  84.7267 96.7461 90.7364
19.566  84.6898 96.747  90.7184
19.573  84.6509 96.7426 90.69675
19.581  84.6112 96.7363 90.67375
19.589  84.5714 96.7298 90.6506
19.596  84.5318 96.7234 90.6276
19.604  84.4922 96.717  90.6046
19.612  84.4526 96.7106 90.5816
19.620  84.413  96.7042 90.5586
19.627  84.3734 96.6978 90.5356
19.635  84.334  96.6914 90.5127
19.643  84.2946 96.6843 90.48945
19.651  84.2565 96.6719 90.4642
19.658  84.2183 96.6595 90.4389
19.666  84.1801 96.6471 90.4136
19.674  84.142  96.6347 90.38835
19.681  84.1039 96.6223 90.3631
19.689  84.0659 96.6099 90.3379
19.697  84.0279 96.5975 90.3127
19.705  83.9899 96.585  90.28745
19.712  83.952  96.5727 90.26235
19.720  83.9156 96.5608 90.2382
19.728  83.8813 96.5496 90.21545
19.735  83.8471 96.5384 90.19275
19.743  83.8128 96.527  90.1699
19.751  83.7786 96.5158 90.1472
19.759  83.7444 96.5046 90.1245
19.766  83.7103 96.4934 90.10185
19.774  83.6761 96.4823 90.0792
19.782  83.6421 96.471  90.05655
19.790  83.608  96.4598 90.0339
19.797  83.5789 96.4488 90.01385
19.805  83.5521 96.4379 89.995
19.813  83.5252 96.427  89.9761
19.820  83.4983 96.416  89.95715
19.828  83.4715 96.4051 89.9383
19.836  83.4447 96.3942 89.91945
19.844  83.4179 96.3833 89.9006
19.851  83.3912 96.3723 89.88175
19.859  83.3645 96.3614 89.86295
19.867  83.3378 96.3506 89.8442
19.874  83.322  96.3369 89.82945
19.882  83.3079 96.3228 89.81535
19.890  83.2939 96.3087 89.8013
19.898  83.2797 96.2946 89.78715
19.905  83.2657 96.2805 89.7731
19.913  83.2517 96.2665 89.7591
19.921  83.2377 96.2524 89.74505
19.928  83.2236 96.2384 89.731
19.936  83.2096 96.2244 89.717
19.944  83.1956 96.2104 89.703
19.952  83.1952 96.1979 89.69655
19.959  83.1952 96.1855 89.69035
19.967  83.1952 96.173  89.6841
19.975  83.1952 96.1605 89.67785
19.983  83.1952 96.1481 89.67165
19.990  83.1952 96.1358 89.6655
19.998  83.1952 96.1234 89.6593
20.006  83.1952 96.111  89.6531
